##TITLE=No Description
##DATA TYPE=INFRARED SPECTRUM
##XUNITS=1/CM
##YUNITS=%T
399.432634  	92.080758 
400.864292  	89.511178 
402.295950  	87.940169 
403.727608  	83.542588 
405.159267  	83.236962 
406.590925  	87.636232 
408.022583  	87.801609 
409.454241  	84.411476 
410.885899  	84.675794 
412.317558  	87.611372 
413.749216  	90.990129 
415.180874  	92.890032 
416.612532  	90.822201 
418.044190  	86.969670 
419.475848  	89.316719 
420.907507  	93.100735 
422.339165  	92.847275 
423.770823  	90.535554 
425.202481  	89.293643 
426.634139  	90.794606 
428.065798  	90.974498 
429.497456  	88.622437 
430.929114  	88.743280 
432.360772  	90.368632 
433.792430  	89.432214 
435.224089  	88.533475 
436.655747  	88.994624 
438.087405  	88.609350 
439.519063  	88.485568 
440.950721  	88.717555 
442.382379  	86.824695 
443.814038  	84.847725 
445.245696  	86.907064 
446.677354  	90.052995 
448.109012  	89.541934 
449.540670  	87.780461 
450.972329  	87.304174 
452.403987  	87.208640 
453.835645  	87.974640 
455.267303  	88.195102 
456.698961  	86.990344 
458.130619  	87.144305 
459.562278  	87.972970 
460.993936  	87.451579 
462.425594  	87.202682 
463.857252  	87.633055 
465.288910  	87.998780 
466.720569  	87.719266 
468.152227  	86.479648 
469.583885  	85.973495 
471.015543  	86.369992 
472.447201  	86.565953 
473.878860  	86.557982 
475.310518  	86.225198 
476.742176  	85.690813 
478.173834  	85.070031 
479.605492  	84.145900 
481.037150  	83.626759 
482.468809  	83.465858 
483.900467  	82.458002 
485.332125  	80.690730 
486.763783  	79.218740 
488.195441  	79.134815 
489.627100  	80.336911 
491.058758  	80.569824 
492.490416  	79.173202 
493.922074  	77.694037 
495.353732  	76.601979 
496.785391  	75.543103 
498.217049  	73.962864 
499.648707  	72.069371 
501.080365  	70.475743 
502.512023  	67.816156 
503.943681  	63.622193 
505.375340  	59.747443 
506.806998  	56.434146 
508.238656  	54.247621 
509.670314  	54.640576 
511.101972  	56.820666 
512.533631  	58.906062 
513.965289  	60.856654 
515.396947  	63.405431 
516.828605  	66.569459 
518.260263  	69.715188 
519.691921  	72.164794 
521.123580  	74.148582 
522.555238  	76.089895 
523.986896  	77.910179 
525.418554  	79.769254 
526.850212  	81.475939 
528.281871  	82.327948 
529.713529  	82.768783 
531.145187  	83.027296 
532.576845  	82.707101 
534.008503  	82.650330 
535.440162  	83.137808 
536.871820  	83.152402 
538.303478  	83.121902 
539.735136  	83.450628 
541.166794  	83.400858 
542.598452  	83.286769 
544.030111  	83.407319 
545.461769  	83.423473 
546.893427  	83.435135 
548.325085  	83.290353 
549.756743  	83.138596 
551.188402  	83.254439 
552.620060  	83.116937 
554.051718  	82.940870 
555.483376  	83.106124 
556.915034  	83.115305 
558.346692  	82.992758 
559.778351  	82.781972 
561.210009  	82.409933 
562.641667  	82.382130 
564.073325  	82.512707 
565.504983  	82.400375 
566.936642  	82.251530 
568.368300  	82.098099 
569.799958  	82.143029 
571.231616  	82.142655 
572.663274  	81.473307 
574.094933  	80.886173 
575.526591  	80.816163 
576.958249  	80.445580 
578.389907  	80.096034 
579.821565  	80.374227 
581.253223  	80.692693 
582.684882  	80.657687 
584.116540  	80.533371 
585.548198  	80.512408 
586.979856  	80.637423 
588.411514  	80.684048 
589.843173  	80.630745 
591.274831  	80.770589 
592.706489  	80.844357 
594.138147  	80.484154 
595.569805  	80.112371 
597.001464  	80.021725 
598.433122  	79.857642 
599.864780  	79.281223 
601.296438  	78.332481 
602.728096  	77.260229 
604.159754  	75.984447 
605.591413  	74.349887 
607.023071  	72.791756 
608.454729  	71.797265 
609.886387  	71.509696 
611.318045  	71.886606 
612.749704  	72.800013 
614.181362  	73.923151 
615.613020  	75.018402 
617.044678  	75.968048 
618.476336  	76.618463 
619.907994  	77.207931 
621.339653  	77.711943 
622.771311  	77.780014 
624.202969  	77.648140 
625.634627  	77.629409 
627.066285  	77.494831 
628.497944  	77.055720 
629.929602  	76.529511 
631.361260  	76.028197 
632.792918  	75.376347 
634.224576  	74.695120 
635.656235  	74.310425 
637.087893  	74.237469 
638.519551  	74.241660 
639.951209  	74.274431 
641.382867  	74.505466 
642.814525  	74.759644 
644.246184  	74.633511 
645.677842  	74.339047 
647.109500  	74.178823 
648.541158  	73.981452 
649.972816  	73.902445 
651.404475  	73.913018 
652.836133  	73.570904 
654.267791  	73.287250 
655.699449  	73.482453 
657.131107  	73.591768 
658.562766  	73.459780 
659.994424  	73.510234 
661.426082  	73.606650 
662.857740  	73.612911 
664.289398  	73.655004 
665.721056  	73.362692 
667.152715  	72.245435 
668.584373  	71.699596 
670.016031  	72.980629 
671.447689  	73.554433 
672.879347  	73.598632 
674.311006  	73.601927 
675.742664  	73.688311 
677.174322  	73.903717 
678.605980  	74.135696 
680.037638  	74.310256 
681.469296  	74.587190 
682.900955  	74.808757 
684.332613  	74.914821 
685.764271  	75.154867 
687.195929  	75.445730 
688.627587  	75.704198 
690.059246  	76.038399 
691.490904  	76.342459 
692.922562  	76.596025 
694.354220  	76.908285 
695.785878  	77.183200 
697.217537  	77.348487 
698.649195  	77.412769 
700.080853  	77.286098 
701.512511  	77.056290 
702.944169  	76.936997 
704.375827  	76.867224 
705.807486  	76.728695 
707.239144  	76.684446 
708.670802  	76.820248 
710.102460  	77.001459 
711.534118  	77.284359 
712.965777  	77.633898 
714.397435  	77.804481 
715.829093  	77.881578 
717.260751  	77.952817 
718.692409  	77.911359 
720.124067  	77.879370 
721.555726  	77.888934 
722.987384  	77.852166 
724.419042  	77.879557 
725.850700  	77.909541 
727.282358  	77.897431 
728.714017  	78.017756 
730.145675  	78.193563 
731.577333  	78.284406 
733.008991  	78.290686 
734.440649  	78.172011 
735.872308  	77.975808 
737.303966  	77.715001 
738.735624  	77.292926 
740.167282  	76.717453 
741.598940  	76.029826 
743.030598  	75.294562 
744.462257  	74.552428 
745.893915  	73.793009 
747.325573  	73.130368 
748.757231  	72.648607 
750.188889  	72.350193 
751.620548  	72.233722 
753.052206  	72.208072 
754.483864  	72.135336 
755.915522  	71.801662 
757.347180  	71.162921 
758.778839  	70.400442 
760.210497  	69.303206 
761.642155  	67.555716 
763.073813  	65.366858 
764.505471  	63.058157 
765.937129  	60.928093 
767.368788  	59.284554 
768.800446  	58.415040 
770.232104  	58.697971 
771.663762  	60.108498 
773.095420  	62.354538 
774.527079  	65.067498 
775.958737  	67.747252 
777.390395  	70.233785 
778.822053  	72.489145 
780.253711  	74.439352 
781.685369  	76.318696 
783.117028  	78.328440 
784.548686  	80.407184 
785.980344  	82.442917 
787.412002  	84.240370 
788.843660  	85.623565 
790.275319  	86.553068 
791.706977  	87.031354 
793.138635  	87.167950 
794.570293  	87.056215 
796.001951  	86.571988 
797.433610  	85.705361 
798.865268  	84.570220 
800.296926  	83.174089 
801.728584  	81.536673 
803.160242  	79.673552 
804.591900  	77.715051 
806.023559  	75.775523 
807.455217  	73.792645 
808.886875  	71.868738 
810.318533  	70.067405 
811.750191  	68.466591 
813.181850  	67.287652 
814.613508  	66.501864 
816.045166  	66.356430 
817.476824  	67.275530 
818.908482  	69.090520 
820.340141  	71.431828 
821.771799  	73.939183 
823.203457  	76.170417 
824.635115  	77.892131 
826.066773  	79.194468 
827.498431  	80.273275 
828.930090  	81.191674 
830.361748  	81.908198 
831.793406  	82.502556 
833.225064  	82.982598 
834.656722  	83.273120 
836.088381  	83.508499 
837.520039  	83.649209 
838.951697  	83.502408 
840.383355  	83.179338 
841.815013  	82.710413 
843.246671  	82.041999 
844.678330  	81.353803 
846.109988  	80.798505 
847.541646  	80.516045 
848.973304  	80.548066 
850.404962  	80.801779 
851.836621  	81.327017 
853.268279  	82.064220 
854.699937  	82.813115 
856.131595  	83.542551 
857.563253  	84.178855 
858.994912  	84.588764 
860.426570  	84.885762 
861.858228  	85.338810 
863.289886  	86.127592 
864.721544  	87.221987 
866.153202  	88.536812 
867.584861  	90.058166 
869.016519  	91.706190 
870.448177  	93.335460 
871.879835  	94.782147 
873.311493  	95.897273 
874.743152  	96.735767 
876.174810  	97.349393 
877.606468  	97.663053 
879.038126  	97.838916 
880.469784  	97.972004 
881.901443  	97.971630 
883.333101  	97.940612 
884.764759  	97.907727 
886.196417  	97.816381 
887.628075  	97.671361 
889.059733  	97.432667 
890.491392  	97.223880 
891.923050  	97.088332 
893.354708  	96.882856 
894.786366  	96.661983 
896.218024  	96.433089 
897.649683  	96.141379 
899.081341  	95.858581 
900.512999  	95.544707 
901.944657  	95.183648 
903.376315  	94.801309 
904.807973  	94.327270 
906.239632  	93.717566 
907.671290  	92.885645 
909.102948  	91.844512 
910.534606  	90.687513 
911.966264  	89.421192 
913.397923  	88.351395 
914.829581  	87.858244 
916.261239  	87.966112 
917.692897  	88.538863 
919.124555  	89.346872 
920.556214  	90.169497 
921.987872  	90.844102 
923.419530  	91.224617 
924.851188  	91.416831 
926.282846  	91.454223 
927.714504  	91.151001 
929.146163  	90.717920 
930.577821  	90.341414 
932.009479  	89.846352 
933.441137  	89.314628 
934.872795  	88.840116 
936.304454  	88.258579 
937.736112  	87.558760 
939.167770  	86.865455 
940.599428  	86.266578 
942.031086  	85.753679 
943.462744  	85.228637 
944.894403  	84.646515 
946.326061  	84.065727 
947.757719  	83.556769 
949.189377  	83.043706 
950.621035  	82.439092 
952.052694  	81.832585 
953.484352  	81.246174 
954.916010  	80.660494 
956.347668  	80.155048 
957.779326  	79.730878 
959.210985  	79.432566 
960.642643  	79.344609 
962.074301  	79.377220 
963.505959  	79.475244 
964.937617  	79.717562 
966.369275  	80.084647 
967.800934  	80.427021 
969.232592  	80.630313 
970.664250  	80.677464 
972.095908  	80.586275 
973.527566  	80.358989 
974.959225  	79.992047 
976.390883  	79.518533 
977.822541  	79.057421 
979.254199  	78.716670 
980.685857  	78.506698 
982.117516  	78.433921 
983.549174  	78.530225 
984.980832  	78.842501 
986.412490  	79.256973 
987.844148  	79.558548 
989.275806  	79.794780 
990.707465  	79.966429 
992.139123  	79.929407 
993.570781  	79.835129 
995.002439  	79.704462 
996.434097  	79.312906 
997.865756  	78.803158 
999.297414  	78.314657 
1000.729072  	77.723136 
1002.160730  	77.028574 
1003.592388  	76.249203 
1005.024046  	75.405042 
1006.455705  	74.496542 
1007.887363  	73.428854 
1009.319021  	72.223400 
1010.750679  	70.854485 
1012.182337  	69.217450 
1013.613996  	67.051263 
1015.045654  	64.089823 
1016.477312  	61.357955 
1017.908970  	60.608790 
1019.340628  	62.277838 
1020.772287  	65.502525 
1022.203945  	68.802210 
1023.635603  	71.012947 
1025.067261  	71.811536 
1026.498919  	71.356334 
1027.930577  	70.191522 
1029.362236  	68.870019 
1030.793894  	67.443433 
1032.225552  	66.022886 
1033.657210  	64.674726 
1035.088868  	63.274602 
1036.520527  	62.032176 
1037.952185  	60.921153 
1039.383843  	59.735811 
1040.815501  	58.511130 
1042.247159  	57.090877 
1043.678818  	55.501319 
1045.110476  	53.886260 
1046.542134  	52.156830 
1047.973792  	50.378822 
1049.405450  	48.482934 
1050.837108  	46.485791 
1052.268767  	44.560986 
1053.700425  	42.600829 
1055.132083  	40.868308 
1056.563741  	39.424193 
1057.995399  	38.027957 
1059.427058  	37.078431 
1060.858716  	36.490219 
1062.290374  	36.041092 
1063.722032  	36.003807 
1065.153690  	36.125005 
1066.585348  	36.400528 
1068.017007  	36.891792 
1069.448665  	37.257152 
1070.880323  	37.709314 
1072.311981  	38.238485 
1073.743639  	38.713822 
1075.175298  	39.384622 
1076.606956  	40.111231 
1078.038614  	41.099056 
1079.470272  	42.515877 
1080.901930  	44.057213 
1082.333589  	46.074344 
1083.765247  	48.536015 
1085.196905  	50.922488 
1086.628563  	53.081213 
1088.060221  	54.527197 
1089.491879  	55.117250 
1090.923538  	55.251331 
1092.355196  	54.948532 
1093.786854  	54.451710 
1095.218512  	53.998182 
1096.650170  	53.454055 
1098.081829  	53.025249 
1099.513487  	52.672393 
1100.945145  	52.287026 
1102.376803  	52.060176 
1103.808461  	51.880134 
1105.240120  	51.923064 
1106.671778  	52.335074 
1108.103436  	52.876751 
1109.535094  	53.688975 
1110.966752  	54.728061 
1112.398410  	55.986660 
1113.830069  	57.743018 
1115.261727  	59.682423 
1116.693385  	61.606010 
1118.125043  	63.622465 
1119.556701  	65.566131 
1120.988360  	67.458953 
1122.420018  	69.421036 
1123.851676  	71.466207 
1125.283334  	73.651249 
1126.714992  	75.882626 
1128.146650  	78.068989 
1129.578309  	80.192643 
1131.009967  	82.156848 
1132.441625  	83.927842 
1133.873283  	85.517271 
1135.304941  	86.862284 
1136.736600  	88.029274 
1138.168258  	89.107512 
1139.599916  	89.964817 
1141.031574  	90.624995 
1142.463232  	91.226794 
1143.894891  	91.748651 
1145.326549  	92.236364 
1146.758207  	92.656264 
1148.189865  	92.967787 
1149.621523  	93.287117 
1151.053181  	93.529070 
1152.484840  	93.680465 
1153.916498  	93.828522 
1155.348156  	93.826496 
1156.779814  	93.716646 
1158.211472  	93.565273 
1159.643131  	93.273129 
1161.074789  	92.937479 
1162.506447  	92.520752 
1163.938105  	91.927989 
1165.369763  	91.277493 
1166.801421  	90.563342 
1168.233080  	89.724426 
1169.664738  	88.696757 
1171.096396  	87.447476 
1172.528054  	86.019688 
1173.959712  	84.328251 
1175.391371  	82.405561 
1176.823029  	80.250815 
1178.254687  	77.773595 
1179.686345  	75.304473 
1181.118003  	73.221570 
1182.549662  	71.693452 
1183.981320  	70.501613 
1185.412978  	69.103323 
1186.844636  	67.383781 
1188.276294  	65.356335 
1189.707952  	63.011937 
1191.139611  	60.540500 
1192.571269  	57.857103 
1194.002927  	55.041085 
1195.434585  	52.213295 
1196.866243  	49.139395 
1198.297902  	46.000519 
1199.729560  	42.941515 
1201.161218  	40.207678 
1202.592876  	38.369351 
1204.024534  	37.260170 
1205.456193  	36.840539 
1206.887851  	37.006115 
1208.319509  	37.049893 
1209.751167  	36.808613 
1211.182825  	36.010828 
1212.614483  	34.522961 
1214.046142  	32.980362 
1215.477800  	31.523787 
1216.909458  	30.468630 
1218.341116  	30.164963 
1219.772774  	30.211290 
1221.204433  	30.800629 
1222.636091  	31.843643 
1224.067749  	32.945148 
1225.499407  	34.404338 
1226.931065  	35.951687 
1228.362723  	37.441410 
1229.794382  	39.159968 
1231.226040  	40.881098 
1232.657698  	42.740183 
1234.089356  	44.816149 
1235.521014  	46.948742 
1236.952673  	49.367063 
1238.384331  	51.894471 
1239.815989  	54.452094 
1241.247647  	57.165289 
1242.679305  	59.679238 
1244.110964  	61.955964 
1245.542622  	63.977648 
1246.974280  	65.397190 
1248.405938  	66.242852 
1249.837596  	66.671878 
1251.269254  	67.032140 
1252.700913  	67.931006 
1254.132571  	69.464060 
1255.564229  	71.606920 
1256.995887  	74.292735 
1258.427545  	77.088545 
1259.859204  	79.829323 
1261.290862  	82.456144 
1262.722520  	84.724306 
1264.154178  	86.560885 
1265.585836  	87.965207 
1267.017495  	88.877388 
1268.449153  	89.402595 
1269.880811  	89.644088 
1271.312469  	89.660281 
1272.744127  	89.599595 
1274.175785  	89.493614 
1275.607444  	89.454973 
1277.039102  	89.618258 
1278.470760  	89.875151 
1279.902418  	90.205362 
1281.334076  	90.584826 
1282.765735  	90.889294 
1284.197393  	91.121648 
1285.629051  	91.166243 
1287.060709  	90.927268 
1288.492367  	90.446146 
1289.924025  	89.624153 
1291.355684  	88.485826 
1292.787342  	87.038238 
1294.219000  	85.216343 
1295.650658  	83.060783 
1297.082316  	80.439844 
1298.513975  	77.447600 
1299.945633  	74.205361 
1301.377291  	70.688390 
1302.808949  	67.217145 
1304.240607  	63.949406 
1305.672266  	61.274921 
1307.103924  	59.532821 
1308.535582  	58.622489 
1309.967240  	58.812864 
1311.398898  	59.832887 
1312.830556  	61.317033 
1314.262215  	63.061405 
1315.693873  	64.470534 
1317.125531  	65.835102 
1318.557189  	67.880378 
1319.988847  	70.857404 
1321.420506  	74.609305 
1322.852164  	78.429106 
1324.283822  	81.921328 
1325.715480  	84.966573 
1327.147138  	87.509893 
1328.578796  	89.558684 
1330.010455  	91.055028 
1331.442113  	92.166711 
1332.873771  	92.926581 
1334.305429  	93.360957 
1335.737087  	93.593002 
1337.168746  	93.592682 
1338.600404  	93.506780 
1340.032062  	93.471563 
1341.463720  	93.526357 
1342.895378  	93.644724 
1344.327037  	93.691612 
1345.758695  	93.720264 
1347.190353  	93.693031 
1348.622011  	93.443331 
1350.053669  	93.109850 
1351.485327  	92.676312 
1352.916986  	92.106865 
1354.348644  	91.553257 
1355.780302  	90.982326 
1357.211960  	90.524642 
1358.643618  	90.178547 
1360.075277  	89.750219 
1361.506935  	89.379451 
1362.938593  	89.130290 
1364.370251  	88.922701 
1365.801909  	88.735785 
1367.233568  	88.550618 
1368.665226  	88.536597 
1370.096884  	88.711006 
1371.528542  	88.895992 
1372.960200  	89.140525 
1374.391858  	89.589775 
1375.823517  	90.178730 
1377.255175  	90.707090 
1378.686833  	91.275076 
1380.118491  	91.905081 
1381.550149  	92.449195 
1382.981808  	92.870189 
1384.413466  	93.102897 
1385.845124  	93.162221 
1387.276782  	93.122364 
1388.708440  	93.089299 
1390.140098  	93.028051 
1391.571757  	92.932673 
1393.003415  	92.801449 
1394.435073  	92.505816 
1395.866731  	92.081542 
1397.298389  	91.504538 
1398.730048  	90.596623 
1400.161706  	89.459383 
1401.593364  	88.024350 
1403.025022  	86.043721 
1404.456680  	83.239472 
1405.888339  	79.125955 
1407.319997  	74.103905 
1408.751655  	68.551055 
1410.183313  	62.573385 
1411.614971  	58.179862 
1413.046629  	56.865838 
1414.478288  	58.385264 
1415.909946  	63.189179 
1417.341604  	69.194825 
1418.773262  	76.019016 
1420.204920  	84.589681 
1421.636579  	88.995782 
1423.068237  	91.342903 
1424.499895  	93.510085 
1425.931553  	93.878666 
1427.363211  	93.495659 
1428.794870  	92.608484 
1430.226528  	91.000379 
1431.658186  	89.818590 
1433.089844  	88.897837 
1434.521502  	88.316467 
1435.953160  	88.405478 
1437.384819  	89.263855 
1438.816477  	90.079411 
1440.248135  	90.553000 
1441.679793  	90.644812 
1443.111451  	90.326168 
1444.543110  	89.570900 
1445.974768  	88.817601 
1447.406426  	88.585119 
1448.838084  	88.687328 
1450.269742  	88.878776 
1451.701400  	88.983714 
1453.133059  	88.844885 
1454.564717  	88.646538 
1455.996375  	88.393388 
1457.428033  	88.593875 
1458.859691  	89.268869 
1460.291350  	89.349024 
1461.723008  	89.106403 
1463.154666  	88.623792 
1464.586324  	87.789434 
1466.017982  	87.076424 
1467.449641  	86.444630 
1468.881299  	85.745209 
1470.312957  	85.178397 
1471.744615  	84.390170 
1473.176273  	83.628640 
1474.607931  	83.062537 
1476.039590  	82.154487 
1477.471248  	81.769529 
1478.902906  	81.952625 
1480.334564  	82.561512 
1481.766222  	83.912442 
1483.197881  	84.916075 
1484.629539  	85.686055 
1486.061197  	86.359912 
1487.492855  	86.556533 
1488.924513  	86.998930 
1490.356172  	86.984592 
1491.787830  	86.445867 
1493.219488  	85.950498 
1494.651146  	84.582229 
1496.082804  	82.924778 
1497.514462  	81.325093 
1498.946121  	78.826692 
1500.377779  	76.739705 
1501.809437  	74.304830 
1503.241095  	71.226003 
1504.672753  	68.784597 
1506.104412  	65.322678 
1507.536070  	59.924396 
1508.967728  	56.759131 
1510.399386  	52.827166 
1511.831044  	49.494537 
1513.262702  	47.033392 
1514.694361  	44.683440 
1516.126019  	43.827063 
1517.557677  	42.874067 
1518.989335  	41.424635 
1520.420993  	41.058196 
1521.852652  	39.256609 
1523.284310  	38.354882 
1524.715968  	38.329016 
1526.147626  	37.693395 
1527.579284  	38.512680 
1529.010943  	39.054803 
1530.442601  	39.547389 
1531.874259  	40.970763 
1533.305917  	42.088815 
1534.737575  	44.726782 
1536.169233  	46.882009 
1537.600892  	48.032341 
1539.032550  	51.210523 
1540.464208  	55.269490 
1541.895866  	58.438106 
1543.327524  	62.352183 
1544.759183  	65.504268 
1546.190841  	69.913879 
1547.622499  	73.548370 
1549.054157  	76.348043 
1550.485815  	80.821316 
1551.917473  	84.115032 
1553.349132  	86.435307 
1554.780790  	89.832509 
1556.212448  	91.886436 
1557.644106  	92.953168 
1559.075764  	95.238885 
1560.507423  	97.535173 
1561.939081  	98.365202 
1563.370739  	98.891622 
1564.802397  	99.436867 
1566.234055  	100.090434 
1567.665714  	100.351515 
1569.097372  	100.512684 
1570.529030  	100.881338 
1571.960688  	100.992651 
1573.392346  	100.856999 
1574.824004  	100.632541 
1576.255663  	100.286518 
1577.687321  	99.853167 
1579.118979  	99.402259 
1580.550637  	98.598210 
1581.982295  	97.393941 
1583.413954  	95.881641 
1584.845612  	93.660484 
1586.277270  	90.945126 
1587.708928  	87.674469 
1589.140586  	83.538075 
1590.572245  	79.479153 
1592.003903  	75.394524 
1593.435561  	71.911852 
1594.867219  	69.951571 
1596.298877  	68.652257 
1597.730535  	68.878253 
1599.162194  	70.161706 
1600.593852  	71.743152 
1602.025510  	74.243876 
1603.457168  	76.574894 
1604.888826  	78.653831 
1606.320485  	80.599871 
1607.752143  	81.699172 
1609.183801  	82.589598 
1610.615459  	83.133687 
1612.047117  	83.353183 
1613.478775  	84.175017 
1614.910434  	84.938403 
1616.342092  	86.567271 
1617.773750  	89.959441 
1619.205408  	92.042659 
1620.637066  	94.019793 
1622.068725  	95.905641 
1623.500383  	97.203166 
1624.932041  	98.686559 
1626.363699  	99.280533 
1627.795357  	99.509052 
1629.227016  	100.216078 
1630.658674  	100.217106 
1632.090332  	100.152753 
1633.521990  	100.284970 
1634.953648  	99.797935 
1636.385306  	99.928431 
1637.816965  	100.138187 
1639.248623  	99.922345 
1640.680281  	100.340065 
1642.111939  	100.390014 
1643.543597  	100.158756 
1644.975256  	100.229447 
1646.406914  	99.761898 
1647.838572  	99.970356 
1649.270230  	100.215634 
1650.701888  	99.660973 
1652.133547  	99.565317 
1653.565205  	99.178718 
1654.996863  	98.871081 
1656.428521  	99.100939 
1657.860179  	98.500670 
1659.291837  	98.126711 
1660.723496  	97.924713 
1662.155154  	96.980387 
1663.586812  	96.698696 
1665.018470  	96.143263 
1666.450128  	95.154671 
1667.881787  	94.731972 
1669.313445  	93.409256 
1670.745103  	92.275240 
1672.176761  	91.680569 
1673.608419  	89.868848 
1675.040077  	88.515492 
1676.471736  	86.790447 
1677.903394  	84.467476 
1679.335052  	82.926550 
1680.766710  	80.163757 
1682.198368  	77.469923 
1683.630027  	75.860187 
1685.061685  	71.049929 
1686.493343  	68.524311 
1687.925001  	66.234982 
1689.356659  	62.271990 
1690.788318  	59.336705 
1692.219976  	56.028645 
1693.651634  	52.510264 
1695.083292  	50.447069 
1696.514950  	47.009093 
1697.946608  	44.869782 
1699.378267  	44.856154 
1700.809925  	44.990825 
1702.241583  	46.110401 
1703.673241  	47.476516 
1705.104899  	49.421217 
1706.536558  	52.561579 
1707.968216  	55.090786 
1709.399874  	57.229163 
1710.831532  	59.677287 
1712.263190  	61.797340 
1713.694849  	63.470520 
1715.126507  	65.468012 
1716.558165  	67.123606 
1717.989823  	68.496980 
1719.421481  	70.273346 
1720.853139  	70.895431 
1722.284798  	71.028495 
1723.716456  	71.154168 
1725.148114  	70.832472 
1726.579772  	70.519686 
1728.011430  	70.499377 
1729.443089  	70.818080 
1730.874747  	72.048802 
1732.306405  	73.423690 
1733.738063  	75.379683 
1735.169721  	80.073331 
1736.601379  	82.679300 
1738.033038  	84.973594 
1739.464696  	88.701096 
1740.896354  	91.931531 
1742.328012  	94.737692 
1743.759670  	97.455031 
1745.191329  	99.314029 
1746.622987  	101.323454 
1748.054645  	102.645349 
1749.486303  	103.625563 
1750.917961  	105.052899 
1752.349620  	105.514827 
1753.781278  	106.188531 
1755.212936  	106.685518 
1756.644594  	106.623520 
1758.076252  	107.346913 
1759.507910  	107.509907 
1760.939569  	107.348596 
1762.371227  	107.911809 
1763.802885  	107.857658 
1765.234543  	107.909662 
1766.666201  	108.044316 
1768.097860  	107.747117 
1769.529518  	108.155803 
1770.961176  	108.148133 
1772.392834  	107.808801 
1773.824492  	108.480680 
1775.256150  	108.318107 
1776.687809  	108.258424 
1778.119467  	108.523095 
1779.551125  	108.157894 
1780.982783  	108.326159 
1782.414441  	108.541898 
1783.846100  	108.273653 
1785.277758  	108.506037 
1786.709416  	108.432499 
1788.141074  	108.361367 
1789.572732  	108.594936 
1791.004391  	108.256467 
1792.436049  	108.376107 
1793.867707  	108.701978 
1795.299365  	108.458516 
1796.731023  	108.704212 
1798.162681  	108.690942 
1799.594340  	108.501434 
1801.025998  	108.817358 
1802.457656  	108.714305 
1803.889314  	108.803272 
1805.320972  	109.015719 
1806.752631  	108.813925 
1808.184289  	109.037091 
1809.615947  	109.095773 
1811.047605  	108.866900 
1812.479263  	109.115603 
1813.910922  	109.040751 
1815.342580  	109.072942 
1816.774238  	109.347595 
1818.205896  	109.172774 
1819.637554  	109.326061 
1821.069212  	109.417322 
1822.500871  	109.224657 
1823.932529  	109.448882 
1825.364187  	109.394115 
1826.795845  	109.438151 
1828.227503  	109.681627 
1829.659162  	109.374657 
1831.090820  	109.571243 
1832.522478  	109.776111 
1833.954136  	109.621173 
1835.385794  	109.914054 
1836.817452  	109.829940 
1838.249111  	109.698229 
1839.680769  	110.024064 
1841.112427  	109.822459 
1842.544085  	109.766494 
1843.975743  	109.949359 
1845.407402  	109.814342 
1846.839060  	110.092245 
1848.270718  	110.045001 
1849.702376  	109.964641 
1851.134034  	110.194900 
1852.565693  	109.905357 
1853.997351  	110.018941 
1855.429009  	110.306748 
1856.860667  	109.975371 
1858.292325  	110.109645 
1859.723983  	110.127555 
1861.155642  	109.968281 
1862.587300  	110.345851 
1864.018958  	110.194080 
1865.450616  	110.084387 
1866.882274  	110.182579 
1868.313933  	109.704747 
1869.745591  	110.095451 
1871.177249  	110.347004 
1872.608907  	109.905715 
1874.040565  	110.148425 
1875.472224  	110.129526 
1876.903882  	109.903490 
1878.335540  	110.141418 
1879.767198  	109.988281 
1881.198856  	110.057182 
1882.630514  	110.149198 
1884.062173  	109.813348 
1885.493831  	109.965235 
1886.925489  	109.847904 
1888.357147  	109.609213 
1889.788805  	109.883166 
1891.220464  	109.642642 
1892.652122  	109.616733 
1894.083780  	109.759960 
1895.515438  	109.462355 
1896.947096  	109.635887 
1898.378754  	109.599831 
1899.810413  	109.430147 
1901.242071  	109.656342 
1902.673729  	109.266096 
1904.105387  	109.182109 
1905.537045  	109.439359 
1906.968704  	109.115368 
1908.400362  	109.355678 
1909.832020  	109.453547 
1911.263678  	109.188434 
1912.695336  	109.699711 
1914.126995  	109.761959 
1915.558653  	109.751545 
1916.990311  	110.119540 
1918.421969  	109.828092 
1919.853627  	110.022319 
1921.285285  	110.117052 
1922.716944  	109.705710 
1924.148602  	110.140289 
1925.580260  	110.090482 
1927.011918  	109.946331 
1928.443576  	110.492358 
1929.875235  	110.238782 
1931.306893  	110.224388 
1932.738551  	110.445045 
1934.170209  	110.130678 
1935.601867  	110.618540 
1937.033525  	110.555332 
1938.465184  	109.982012 
1939.896842  	110.317129 
1941.328500  	110.071584 
1942.760158  	110.119542 
1944.191816  	110.652754 
1945.623475  	110.240915 
1947.055133  	110.526061 
1948.486791  	110.490038 
1949.918449  	109.732031 
1951.350107  	110.010828 
1952.781766  	110.073818 
1954.213424  	110.225802 
1955.645082  	110.518148 
1957.076740  	109.875667 
1958.508398  	110.230178 
1959.940056  	110.263696 
1961.371715  	109.418789 
1962.803373  	109.863869 
1964.235031  	109.370398 
1965.666689  	108.920283 
1967.098347  	109.896870 
1968.530006  	109.699201 
1969.961664  	109.900037 
1971.393322  	110.006572 
1972.824980  	109.263285 
1974.256638  	109.985394 
1975.688297  	109.702637 
1977.119955  	109.087100 
1978.551613  	109.948185 
1979.983271  	109.716870 
1981.414929  	110.108070 
1982.846587  	110.425933 
1984.278246  	109.655411 
1985.709904  	110.360957 
1987.141562  	110.399662 
1988.573220  	109.846993 
1990.004878  	110.501464 
1991.436537  	109.760527 
1992.868195  	109.501271 
1994.299853  	110.530439 
1995.731511  	110.196891 
1997.163169  	110.213653 
1998.594827  	110.266070 
2000.026486  	110.087728 
2001.458144  	110.807750 
2002.889802  	110.097370 
2004.321460  	109.532257 
2005.753118  	110.368679 
2007.184777  	109.911721 
2008.616435  	109.696918 
2010.048093  	109.551277 
2011.479751  	109.056935 
2012.911409  	110.006270 
2014.343068  	110.053385 
2015.774726  	109.754638 
2017.206384  	110.162827 
2018.638042  	109.265523 
2020.069700  	109.420595 
2021.501358  	109.990229 
2022.933017  	109.689305 
2024.364675  	110.589437 
2025.796333  	110.112581 
2027.227991  	109.216172 
2028.659649  	110.184550 
2030.091308  	109.844290 
2031.522966  	109.597445 
2032.954624  	110.050063 
2034.386282  	109.687565 
2035.817940  	110.438178 
2037.249599  	110.302672 
2038.681257  	109.456540 
2040.112915  	110.183171 
2041.544573  	110.108748 
2042.976231  	109.960017 
2044.407889  	110.334838 
2045.839548  	109.904453 
2047.271206  	110.356442 
2048.702864  	110.586818 
2050.134522  	110.084358 
2051.566180  	110.435063 
2052.997839  	110.196531 
2054.429497  	109.925637 
2055.861155  	110.258766 
2057.292813  	110.167008 
2058.724471  	110.588358 
2060.156129  	110.757202 
2061.587788  	110.356858 
2063.019446  	110.848812 
2064.451104  	110.922490 
2065.882762  	110.727773 
2067.314420  	111.088352 
2068.746079  	110.889350 
2070.177737  	110.863709 
2071.609395  	110.729092 
2073.041053  	110.259417 
2074.472711  	110.726656 
2075.904370  	110.840726 
2077.336028  	110.592784 
2078.767686  	110.998076 
2080.199344  	110.939829 
2081.631002  	110.949682 
2083.062660  	111.134008 
2084.494319  	110.824363 
2085.925977  	110.850383 
2087.357635  	110.656026 
2088.789293  	110.458173 
2090.220951  	110.926838 
2091.652610  	110.825408 
2093.084268  	110.825173 
2094.515926  	111.136189 
2095.947584  	110.752784 
2097.379242  	110.865705 
2098.810901  	110.964075 
2100.242559  	110.506871 
2101.674217  	110.636256 
2103.105875  	110.609611 
2104.537533  	110.796641 
2105.969191  	111.398390 
2107.400850  	110.969661 
2108.832508  	110.643889 
2110.264166  	110.783809 
2111.695824  	110.616774 
2113.127482  	110.802551 
2114.559141  	110.798703 
2115.990799  	110.777193 
2117.422457  	111.163809 
2118.854115  	110.915414 
2120.285773  	110.852456 
2121.717431  	111.047094 
2123.149090  	110.639232 
2124.580748  	110.780319 
2126.012406  	110.948569 
2127.444064  	110.638206 
2128.875722  	110.838178 
2130.307381  	110.711846 
2131.739039  	110.412822 
2133.170697  	110.396811 
2134.602355  	109.997417 
2136.034013  	110.137007 
2137.465672  	110.259161 
2138.897330  	109.984385 
2140.328988  	110.412582 
2141.760646  	110.149107 
2143.192304  	109.570973 
2144.623962  	109.733880 
2146.055621  	109.648215 
2147.487279  	110.172037 
2148.918937  	110.378346 
2150.350595  	109.513949 
2151.782253  	109.634806 
2153.213912  	109.540682 
2154.645570  	109.283685 
2156.077228  	109.834996 
2157.508886  	109.434193 
2158.940544  	109.650126 
2160.372202  	109.887752 
2161.803861  	109.130023 
2163.235519  	110.029716 
2164.667177  	110.353757 
2166.098835  	109.926832 
2167.530493  	110.486537 
2168.962152  	110.201649 
2170.393810  	110.210683 
2171.825468  	110.389241 
2173.257126  	109.632906 
2174.688784  	110.109164 
2176.120443  	110.183006 
2177.552101  	109.412169 
2178.983759  	110.256102 
2180.415417  	110.570121 
2181.847075  	110.246425 
2183.278733  	110.314022 
2184.710392  	109.632934 
2186.142050  	109.805348 
2187.573708  	110.204544 
2189.005366  	109.702223 
2190.437024  	109.949813 
2191.868683  	110.013924 
2193.300341  	109.997271 
2194.731999  	110.747311 
2196.163657  	110.643183 
2197.595315  	110.325134 
2199.026974  	110.315861 
2200.458632  	110.108712 
2201.890290  	110.356499 
2203.321948  	110.386246 
2204.753606  	110.443433 
2206.185264  	110.797309 
2207.616923  	110.327597 
2209.048581  	110.291143 
2210.480239  	110.677116 
2211.911897  	110.337483 
2213.343555  	110.360945 
2214.775214  	110.299829 
2216.206872  	110.067568 
2217.638530  	110.534786 
2219.070188  	110.705688 
2220.501846  	110.797475 
2221.933504  	110.938433 
2223.365163  	110.595381 
2224.796821  	110.682473 
2226.228479  	110.630188 
2227.660137  	110.447384 
2229.091795  	111.102229 
2230.523454  	111.312888 
2231.955112  	111.073088 
2233.386770  	111.030499 
2234.818428  	110.716040 
2236.250086  	110.759480 
2237.681745  	110.844341 
2239.113403  	110.689487 
2240.545061  	110.966348 
2241.976719  	110.915343 
2243.408377  	110.768348 
2244.840035  	111.045001 
2246.271694  	111.099204 
2247.703352  	111.292566 
2249.135010  	111.227231 
2250.566668  	110.760688 
2251.998326  	110.983378 
2253.429985  	111.192183 
2254.861643  	111.121413 
2256.293301  	111.155992 
2257.724959  	110.742140 
2259.156617  	110.676845 
2260.588276  	111.015496 
2262.019934  	110.903240 
2263.451592  	110.885792 
2264.883250  	110.848858 
2266.314908  	110.901848 
2267.746566  	111.403459 
2269.178225  	111.348973 
2270.609883  	110.991523 
2272.041541  	110.888523 
2273.473199  	110.791965 
2274.904857  	111.115333 
2276.336516  	111.341805 
2277.768174  	111.175820 
2279.199832  	111.330078 
2280.631490  	111.334007 
2282.063148  	111.148401 
2283.494806  	111.212418 
2284.926465  	111.213468 
2286.358123  	111.239356 
2287.789781  	111.167141 
2289.221439  	111.002042 
2290.653097  	111.092100 
2292.084756  	110.974713 
2293.516414  	110.782047 
2294.948072  	110.838496 
2296.379730  	110.670989 
2297.811388  	110.555315 
2299.243047  	110.607440 
2300.674705  	110.435184 
2302.106363  	110.298398 
2303.538021  	110.167564 
2304.969679  	110.004846 
2306.401337  	109.928996 
2307.832996  	109.677665 
2309.264654  	109.525049 
2310.696312  	109.502456 
2312.127970  	109.258541 
2313.559628  	109.126076 
2314.991287  	109.065474 
2316.422945  	108.941832 
2317.854603  	108.841832 
2319.286261  	108.408364 
2320.717919  	107.939180 
2322.149577  	107.754123 
2323.581236  	107.629396 
2325.012894  	107.728528 
2326.444552  	107.642395 
2327.876210  	107.134410 
2329.307868  	106.823508 
2330.739527  	106.681304 
2332.171185  	106.619147 
2333.602843  	106.773397 
2335.034501  	106.757550 
2336.466159  	106.650822 
2337.897818  	106.584052 
2339.329476  	106.428110 
2340.761134  	106.306191 
2342.192792  	106.165416 
2343.624450  	106.188929 
2345.056108  	106.438387 
2346.487767  	106.935792 
2347.919425  	107.896209 
2349.351083  	108.302511 
2350.782741  	107.544394 
2352.214399  	106.656030 
2353.646058  	106.258597 
2355.077716  	105.714584 
2356.509374  	105.209656 
2357.941032  	104.810504 
2359.372690  	104.548437 
2360.804349  	104.669420 
2362.236007  	104.754205 
2363.667665  	104.971009 
2365.099323  	105.357511 
2366.530981  	105.649991 
2367.962639  	106.137320 
2369.394298  	106.559267 
2370.825956  	106.939473 
2372.257614  	107.481438 
2373.689272  	107.841146 
2375.120930  	108.302139 
2376.552589  	108.840426 
2377.984247  	109.166011 
2379.415905  	109.667704 
2380.847563  	110.207261 
2382.279221  	110.616957 
2383.710879  	111.094809 
2385.142538  	111.346876 
2386.574196  	111.422330 
2388.005854  	111.542307 
2389.437512  	111.531248 
2390.869170  	111.582953 
2392.300829  	111.727065 
2393.732487  	111.703957 
2395.164145  	111.648450 
2396.595803  	111.609293 
2398.027461  	111.586179 
2399.459120  	111.646747 
2400.890778  	111.678270 
2402.322436  	111.631694 
2403.754094  	111.512911 
2405.185752  	111.489149 
2406.617410  	111.612779 
2408.049069  	111.613620 
2409.480727  	111.593401 
2410.912385  	111.606468 
2412.344043  	111.521067 
2413.775701  	111.577909 
2415.207360  	111.659078 
2416.639018  	111.618539 
2418.070676  	111.704910 
2419.502334  	111.743720 
2420.933992  	111.677486 
2422.365651  	111.649161 
2423.797309  	111.561252 
2425.228967  	111.579668 
2426.660625  	111.678862 
2428.092283  	111.696628 
2429.523941  	111.717240 
2430.955600  	111.591193 
2432.387258  	111.518186 
2433.818916  	111.726354 
2435.250574  	111.794007 
2436.682232  	111.683841 
2438.113891  	111.598158 
2439.545549  	111.578112 
2440.977207  	111.680384 
2442.408865  	111.633112 
2443.840523  	111.534504 
2445.272181  	111.644275 
2446.703840  	111.667141 
2448.135498  	111.669519 
2449.567156  	111.739841 
2450.998814  	111.704269 
2452.430472  	111.743201 
2453.862131  	111.759100 
2455.293789  	111.710669 
2456.725447  	111.773912 
2458.157105  	111.703917 
2459.588763  	111.618646 
2461.020422  	111.666622 
2462.452080  	111.638821 
2463.883738  	111.705581 
2465.315396  	111.730585 
2466.747054  	111.571955 
2468.178712  	111.580992 
2469.610371  	111.596446 
2471.042029  	111.556530 
2472.473687  	111.654174 
2473.905345  	111.627563 
2475.337003  	111.520362 
2476.768662  	111.479044 
2478.200320  	111.436414 
2479.631978  	111.498722 
2481.063636  	111.572866 
2482.495294  	111.604115 
2483.926953  	111.588029 
2485.358611  	111.452239 
2486.790269  	111.485385 
2488.221927  	111.607306 
2489.653585  	111.600586 
2491.085243  	111.704088 
2492.516902  	111.707212 
2493.948560  	111.525306 
2495.380218  	111.485010 
2496.811876  	111.498155 
2498.243534  	111.595490 
2499.675193  	111.704239 
2501.106851  	111.593889 
2502.538509  	111.566172 
2503.970167  	111.642932 
2505.401825  	111.627958 
2506.833483  	111.602949 
2508.265142  	111.565206 
2509.696800  	111.653369 
2511.128458  	111.741463 
2512.560116  	111.655068 
2513.991774  	111.724453 
2515.423433  	111.749132 
2516.855091  	111.566067 
2518.286749  	111.567581 
2519.718407  	111.636990 
2521.150065  	111.744789 
2522.581724  	111.887997 
2524.013382  	111.750033 
2525.445040  	111.643216 
2526.876698  	111.737929 
2528.308356  	111.819854 
2529.740014  	111.891405 
2531.171673  	111.780583 
2532.603331  	111.712453 
2534.034989  	111.853737 
2535.466647  	111.812487 
2536.898305  	111.820887 
2538.329964  	111.923364 
2539.761622  	111.802559 
2541.193280  	111.795380 
2542.624938  	111.815156 
2544.056596  	111.686710 
2545.488254  	111.707984 
2546.919913  	111.722214 
2548.351571  	111.704292 
2549.783229  	111.712521 
2551.214887  	111.606974 
2552.646545  	111.640632 
2554.078204  	111.732768 
2555.509862  	111.697345 
2556.941520  	111.683306 
2558.373178  	111.573926 
2559.804836  	111.545559 
2561.236495  	111.667107 
2562.668153  	111.624011 
2564.099811  	111.634112 
2565.531469  	111.633991 
2566.963127  	111.461864 
2568.394785  	111.472620 
2569.826444  	111.526610 
2571.258102  	111.574550 
2572.689760  	111.717850 
2574.121418  	111.615327 
2575.553076  	111.513054 
2576.984735  	111.598315 
2578.416393  	111.597275 
2579.848051  	111.676012 
2581.279709  	111.708652 
2582.711367  	111.577780 
2584.143026  	111.635434 
2585.574684  	111.724321 
2587.006342  	111.658547 
2588.438000  	111.555726 
2589.869658  	111.484321 
2591.301316  	111.537881 
2592.732975  	111.520158 
2594.164633  	111.455759 
2595.596291  	111.567276 
2597.027949  	111.582599 
2598.459607  	111.562324 
2599.891266  	111.682932 
2601.322924  	111.687455 
2602.754582  	111.680534 
2604.186240  	111.711768 
2605.617898  	111.641081 
2607.049556  	111.620680 
2608.481215  	111.606378 
2609.912873  	111.589921 
2611.344531  	111.655627 
2612.776189  	111.665906 
2614.207847  	111.670121 
2615.639506  	111.665758 
2617.071164  	111.599431 
2618.502822  	111.577525 
2619.934480  	111.511502 
2621.366138  	111.497342 
2622.797797  	111.634143 
2624.229455  	111.672298 
2625.661113  	111.659317 
2627.092771  	111.658907 
2628.524429  	111.604981 
2629.956087  	111.619804 
2631.387746  	111.598759 
2632.819404  	111.529201 
2634.251062  	111.535566 
2635.682720  	111.489603 
2637.114378  	111.484661 
2638.546037  	111.537375 
2639.977695  	111.482794 
2641.409353  	111.487814 
2642.841011  	111.531629 
2644.272669  	111.506114 
2645.704328  	111.517023 
2647.135986  	111.488585 
2648.567644  	111.470373 
2649.999302  	111.509527 
2651.430960  	111.465274 
2652.862618  	111.461290 
2654.294277  	111.489736 
2655.725935  	111.434664 
2657.157593  	111.426743 
2658.589251  	111.406446 
2660.020909  	111.331717 
2661.452568  	111.297622 
2662.884226  	111.250896 
2664.315884  	111.226323 
2665.747542  	111.201080 
2667.179200  	111.126298 
2668.610858  	111.117082 
2670.042517  	111.108664 
2671.474175  	111.088755 
2672.905833  	111.112708 
2674.337491  	111.054139 
2675.769149  	111.005772 
2677.200808  	111.012074 
2678.632466  	110.955417 
2680.064124  	110.931747 
2681.495782  	110.882904 
2682.927440  	110.791205 
2684.359099  	110.806734 
2685.790757  	110.774795 
2687.222415  	110.703638 
2688.654073  	110.729306 
2690.085731  	110.679093 
2691.517389  	110.561253 
2692.949048  	110.502482 
2694.380706  	110.478245 
2695.812364  	110.438153 
2697.244022  	110.326547 
2698.675680  	110.268990 
2700.107339  	110.284550 
2701.538997  	110.209931 
2702.970655  	110.149691 
2704.402313  	110.118550 
2705.833971  	110.040202 
2707.265630  	110.012379 
2708.697288  	109.959077 
2710.128946  	109.895571 
2711.560604  	109.891094 
2712.992262  	109.811945 
2714.423920  	109.769478 
2715.855579  	109.784723 
2717.287237  	109.707117 
2718.718895  	109.662524 
2720.150553  	109.604365 
2721.582211  	109.492577 
2723.013870  	109.475913 
2724.445528  	109.404804 
2725.877186  	109.279203 
2727.308844  	109.243501 
2728.740502  	109.188140 
2730.172160  	109.125119 
2731.603819  	109.058089 
2733.035477  	108.961668 
2734.467135  	108.929078 
2735.898793  	108.865350 
2737.330451  	108.777237 
2738.762110  	108.758275 
2740.193768  	108.713698 
2741.625426  	108.687072 
2743.057084  	108.681625 
2744.488742  	108.651164 
2745.920401  	108.670301 
2747.352059  	108.630837 
2748.783717  	108.579127 
2750.215375  	108.637125 
2751.647033  	108.616115 
2753.078691  	108.561813 
2754.510350  	108.571772 
2755.942008  	108.539233 
2757.373666  	108.534239 
2758.805324  	108.508343 
2760.236982  	108.430801 
2761.668641  	108.452296 
2763.100299  	108.456165 
2764.531957  	108.404449 
2765.963615  	108.382268 
2767.395273  	108.310814 
2768.826931  	108.239190 
2770.258590  	108.156510 
2771.690248  	108.033368 
2773.121906  	107.993428 
2774.553564  	107.928735 
2775.985222  	107.790396 
2777.416881  	107.681950 
2778.848539  	107.523562 
2780.280197  	107.341967 
2781.711855  	107.166879 
2783.143513  	106.931611 
2784.575172  	106.710938 
2786.006830  	106.472477 
2787.438488  	106.161061 
2788.870146  	105.847684 
2790.301804  	105.537591 
2791.733462  	105.239795 
2793.165121  	104.930036 
2794.596779  	104.653774 
2796.028437  	104.526270 
2797.460095  	104.438444 
2798.891753  	104.401221 
2800.323412  	104.521203 
2801.755070  	104.647605 
2803.186728  	104.789155 
2804.618386  	104.995283 
2806.050044  	105.160766 
2807.481703  	105.365562 
2808.913361  	105.579690 
2810.345019  	105.723920 
2811.776677  	105.899846 
2813.208335  	106.017491 
2814.639993  	106.021614 
2816.071652  	105.970149 
2817.503310  	105.818755 
2818.934968  	105.637320 
2820.366626  	105.394271 
2821.798284  	105.027145 
2823.229943  	104.678629 
2824.661601  	104.287363 
2826.093259  	103.760437 
2827.524917  	103.158820 
2828.956575  	102.452466 
2830.388233  	101.695866 
2831.819892  	100.915246 
2833.251550  	100.037646 
2834.683208  	99.101051 
2836.114866  	98.081887 
2837.546524  	96.989074 
2838.978183  	95.909229 
2840.409841  	94.795979 
2841.841499  	93.659864 
2843.273157  	92.531519 
2844.704815  	91.350410 
2846.136474  	90.143507 
2847.568132  	88.962837 
2848.999790  	87.913763 
2850.431448  	87.170933 
2851.863106  	86.727320 
2853.294764  	86.468561 
2854.726423  	86.345144 
2856.158081  	86.301678 
2857.589739  	86.311840 
2859.021397  	86.384079 
2860.453055  	86.512726 
2861.884714  	86.681953 
2863.316372  	86.881206 
2864.748030  	87.195289 
2866.179688  	87.642732 
2867.611346  	88.109073 
2869.043005  	88.643919 
2870.474663  	89.304771 
2871.906321  	90.033773 
2873.337979  	90.885821 
2874.769637  	91.808511 
2876.201295  	92.688803 
2877.632954  	93.600174 
2879.064612  	94.499436 
2880.496270  	95.274077 
2881.927928  	95.929312 
2883.359586  	96.458097 
2884.791245  	96.877328 
2886.222903  	97.195521 
2887.654561  	97.412964 
2889.086219  	97.519186 
2890.517877  	97.469609 
2891.949535  	97.383375 
2893.381194  	97.319552 
2894.812852  	97.164308 
2896.244510  	96.995765 
2897.676168  	96.866595 
2899.107826  	96.658577 
2900.539485  	96.395017 
2901.971143  	96.142724 
2903.402801  	95.889296 
2904.834459  	95.584661 
2906.266117  	95.193128 
2907.697776  	94.791468 
2909.129434  	94.415899 
2910.561092  	94.030115 
2911.992750  	93.623916 
2913.424408  	93.135270 
2914.856066  	92.606337 
2916.287725  	92.233785 
2917.719383  	92.087777 
2919.151041  	92.069803 
2920.582699  	92.072143 
2922.014357  	92.093361 
2923.446016  	92.155150 
2924.877674  	92.156637 
2926.309332  	92.052447 
2927.740990  	91.898640 
2929.172648  	91.679286 
2930.604306  	91.368158 
2932.035965  	90.992027 
2933.467623  	90.639543 
2934.899281  	90.354159 
2936.330939  	90.049085 
2937.762597  	89.750822 
2939.194256  	89.577228 
2940.625914  	89.541172 
2942.057572  	89.623670 
2943.489230  	89.763137 
2944.920888  	89.961661 
2946.352547  	90.312124 
2947.784205  	90.724937 
2949.215863  	91.140346 
2950.647521  	91.645685 
2952.079179  	92.198444 
2953.510837  	92.820928 
2954.942496  	93.546551 
2956.374154  	94.244112 
2957.805812  	94.953226 
2959.237470  	95.733087 
2960.669128  	96.522929 
2962.100787  	97.360236 
2963.532445  	98.201858 
2964.964103  	99.011654 
2966.395761  	99.843835 
2967.827419  	100.649837 
2969.259078  	101.423442 
2970.690736  	102.122078 
2972.122394  	102.727816 
2973.554052  	103.413620 
2974.985710  	104.135854 
2976.417368  	104.726579 
2977.849027  	105.177790 
2979.280685  	105.554257 
2980.712343  	106.014777 
2982.144001  	106.479451 
2983.575659  	106.793401 
2985.007318  	107.118135 
2986.438976  	107.412535 
2987.870634  	107.605180 
2989.302292  	107.874811 
2990.733950  	108.135448 
2992.165608  	108.302363 
2993.597267  	108.437694 
2995.028925  	108.512423 
2996.460583  	108.602558 
2997.892241  	108.672556 
2999.323899  	108.662416 
3000.755558  	108.687165 
3002.187216  	108.681340 
3003.618874  	108.664603 
3005.050532  	108.740456 
3006.482190  	108.761803 
3007.913849  	108.741752 
3009.345507  	108.756028 
3010.777165  	108.745877 
3012.208823  	108.761827 
3013.640481  	108.791163 
3015.072139  	108.812965 
3016.503798  	108.832245 
3017.935456  	108.789632 
3019.367114  	108.786257 
3020.798772  	108.794620 
3022.230430  	108.685794 
3023.662089  	108.567485 
3025.093747  	108.414024 
3026.525405  	108.197950 
3027.957063  	108.028806 
3029.388721  	107.836456 
3030.820380  	107.643676 
3032.252038  	107.503458 
3033.683696  	107.379676 
3035.115354  	107.358622 
3036.547012  	107.341875 
3037.978670  	107.249136 
3039.410329  	107.198148 
3040.841987  	107.110695 
3042.273645  	107.045314 
3043.705303  	107.107424 
3045.136961  	107.120382 
3046.568620  	107.114741 
3048.000278  	107.167941 
3049.431936  	107.225447 
3050.863594  	107.336445 
3052.295252  	107.379446 
3053.726910  	107.308457 
3055.158569  	107.303495 
3056.590227  	107.336671 
3058.021885  	107.358113 
3059.453543  	107.373207 
3060.885201  	107.369327 
3062.316860  	107.420811 
3063.748518  	107.484477 
3065.180176  	107.561171 
3066.611834  	107.725438 
3068.043492  	107.858375 
3069.475151  	107.952877 
3070.906809  	108.082065 
3072.338467  	108.230922 
3073.770125  	108.420271 
3075.201783  	108.553719 
3076.633441  	108.628202 
3078.065100  	108.764602 
3079.496758  	108.888514 
3080.928416  	108.985876 
3082.360074  	109.051072 
3083.791732  	109.059648 
3085.223391  	109.161354 
3086.655049  	109.267118 
3088.086707  	109.263786 
3089.518365  	109.278139 
3090.950023  	109.286374 
3092.381682  	109.336146 
3093.813340  	109.415238 
3095.244998  	109.323999 
3096.676656  	109.221742 
3098.108314  	109.185822 
3099.539972  	109.041159 
3100.971631  	108.881389 
3102.403289  	108.761000 
3103.834947  	108.682268 
3105.266605  	108.664592 
3106.698263  	108.562525 
3108.129922  	108.406528 
3109.561580  	108.250909 
3110.993238  	108.066612 
3112.424896  	107.964603 
3113.856554  	107.859150 
3115.288212  	107.702117 
3116.719871  	107.639852 
3118.151529  	107.569551 
3119.583187  	107.463202 
3121.014845  	107.425348 
3122.446503  	107.403643 
3123.878162  	107.380928 
3125.309820  	107.360368 
3126.741478  	107.443197 
3128.173136  	107.643707 
3129.604794  	107.715450 
3131.036453  	107.772990 
3132.468111  	107.998071 
3133.899769  	108.218757 
3135.331427  	108.427630 
3136.763085  	108.611262 
3138.194743  	108.744034 
3139.626402  	108.952018 
3141.058060  	109.087568 
3142.489718  	109.114240 
3143.921376  	109.185089 
3145.353034  	109.250318 
3146.784693  	109.359913 
3148.216351  	109.448039 
3149.648009  	109.413839 
3151.079667  	109.442147 
3152.511325  	109.440481 
3153.942983  	109.345432 
3155.374642  	109.344640 
3156.806300  	109.328250 
3158.237958  	109.280932 
3159.669616  	109.275610 
3161.101274  	109.220877 
3162.532933  	109.193576 
3163.964591  	109.147694 
3165.396249  	109.020301 
3166.827907  	108.940990 
3168.259565  	108.838240 
3169.691224  	108.724330 
3171.122882  	108.639345 
3172.554540  	108.479445 
3173.986198  	108.379155 
3175.417856  	108.294573 
3176.849514  	108.087466 
3178.281173  	107.915767 
3179.712831  	107.708152 
3181.144489  	107.446314 
3182.576147  	107.295449 
3184.007805  	107.132751 
3185.439464  	106.947191 
3186.871122  	106.779833 
3188.302780  	106.585884 
3189.734438  	106.522868 
3191.166096  	106.510874 
3192.597755  	106.427080 
3194.029413  	106.454696 
3195.461071  	106.582861 
3196.892729  	106.752762 
3198.324387  	106.916912 
3199.756045  	106.936219 
3201.187704  	106.961719 
3202.619362  	107.060147 
3204.051020  	107.105681 
3205.482678  	107.135529 
3206.914336  	107.125170 
3208.345995  	107.115960 
3209.777653  	107.174829 
3211.209311  	107.163778 
3212.640969  	107.104427 
3214.072627  	107.042999 
3215.504285  	106.937618 
3216.935944  	106.821362 
3218.367602  	106.611887 
3219.799260  	106.391270 
3221.230918  	106.312001 
3222.662576  	106.206666 
3224.094235  	106.062958 
3225.525893  	105.955414 
3226.957551  	105.786650 
3228.389209  	105.592995 
3229.820867  	105.404534 
3231.252526  	105.246904 
3232.684184  	105.140784 
3234.115842  	104.929253 
3235.547500  	104.688672 
3236.979158  	104.534895 
3238.410816  	104.285308 
3239.842475  	103.988193 
3241.274133  	103.815024 
3242.705791  	103.675534 
3244.137449  	103.473946 
3245.569107  	103.228683 
3247.000766  	102.996932 
3248.432424  	102.801165 
3249.864082  	102.651447 
3251.295740  	102.512542 
3252.727398  	102.262766 
3254.159057  	102.006475 
3255.590715  	101.842786 
3257.022373  	101.566680 
3258.454031  	101.264069 
3259.885689  	101.123826 
3261.317347  	100.958075 
3262.749006  	100.694677 
3264.180664  	100.416808 
3265.612322  	100.165874 
3267.043980  	100.013832 
3268.475638  	99.862878 
3269.907297  	99.632007 
3271.338955  	99.408121 
3272.770613  	99.203190 
3274.202271  	99.003007 
3275.633929  	98.771117 
3277.065587  	98.492896 
3278.497246  	98.239876 
3279.928904  	98.017934 
3281.360562  	97.850638 
3282.792220  	97.673204 
3284.223878  	97.355654 
3285.655537  	97.044052 
3287.087195  	96.800827 
3288.518853  	96.546914 
3289.950511  	96.373457 
3291.382169  	96.207420 
3292.813828  	95.992058 
3294.245486  	95.833708 
3295.677144  	95.627130 
3297.108802  	95.413878 
3298.540460  	95.307262 
3299.972118  	95.130990 
3301.403777  	94.910507 
3302.835435  	94.786628 
3304.267093  	94.711652 
3305.698751  	94.668987 
3307.130409  	94.639393 
3308.562068  	94.654744 
3309.993726  	94.697553 
3311.425384  	94.626133 
3312.857042  	94.565333 
3314.288700  	94.579587 
3315.720359  	94.514686 
3317.152017  	94.503509 
3318.583675  	94.604610 
3320.015333  	94.629816 
3321.446991  	94.631282 
3322.878649  	94.725865 
3324.310308  	94.878848 
3325.741966  	95.021416 
3327.173624  	95.132360 
3328.605282  	95.294830 
3330.036940  	95.514638 
3331.468599  	95.720588 
3332.900257  	95.948008 
3334.331915  	96.223919 
3335.763573  	96.512786 
3337.195231  	96.796951 
3338.626889  	97.096117 
3340.058548  	97.435817 
3341.490206  	97.836029 
3342.921864  	98.313510 
3344.353522  	98.743951 
3345.785180  	99.079291 
3347.216839  	99.520480 
3348.648497  	99.998597 
3350.080155  	100.339786 
3351.511813  	100.718639 
3352.943471  	101.187076 
3354.375130  	101.621510 
3355.806788  	101.988268 
3357.238446  	102.268206 
3358.670104  	102.580145 
3360.101762  	102.968647 
3361.533420  	103.315983 
3362.965079  	103.639584 
3364.396737  	103.951102 
3365.828395  	104.245208 
3367.260053  	104.518704 
3368.691711  	104.705888 
3370.123370  	104.896290 
3371.555028  	105.103214 
3372.986686  	105.282667 
3374.418344  	105.525187 
3375.850002  	105.681990 
3377.281660  	105.719707 
3378.713319  	105.830909 
3380.144977  	105.922953 
3381.576635  	106.020108 
3383.008293  	106.142077 
3384.439951  	106.153155 
3385.871610  	106.275238 
3387.303268  	106.436859 
3388.734926  	106.394324 
3390.166584  	106.438975 
3391.598242  	106.564619 
3393.029901  	106.604356 
3394.461559  	106.691146 
3395.893217  	106.728319 
3397.324875  	106.780337 
3398.756533  	106.961156 
3400.188191  	107.050111 
3401.619850  	107.130517 
3403.051508  	107.250936 
3404.483166  	107.257244 
3405.914824  	107.300075 
3407.346482  	107.409252 
3408.778141  	107.500851 
3410.209799  	107.619675 
3411.641457  	107.716283 
3413.073115  	107.795157 
3414.504773  	107.856733 
3415.936432  	107.897484 
3417.368090  	107.960075 
3418.799748  	107.948540 
3420.231406  	107.959335 
3421.663064  	108.073418 
3423.094722  	108.079954 
3424.526381  	108.090299 
3425.958039  	108.190198 
3427.389697  	108.209326 
3428.821355  	108.235763 
3430.253013  	108.326538 
3431.684672  	108.432131 
3433.116330  	108.516423 
3434.547988  	108.485560 
3435.979646  	108.478413 
3437.411304  	108.537116 
3438.842962  	108.541207 
3440.274621  	108.567333 
3441.706279  	108.542502 
3443.137937  	108.494579 
3444.569595  	108.591438 
3446.001253  	108.671303 
3447.432912  	108.773077 
3448.864570  	108.937206 
3450.296228  	109.000419 
3451.727886  	109.106923 
3453.159544  	109.149171 
3454.591203  	109.065090 
3456.022861  	109.147200 
3457.454519  	109.175073 
3458.886177  	109.102038 
3460.317835  	109.223975 
3461.749493  	109.290346 
3463.181152  	109.287229 
3464.612810  	109.406376 
3466.044468  	109.459012 
3467.476126  	109.487421 
3468.907784  	109.516820 
3470.339443  	109.482943 
3471.771101  	109.502301 
3473.202759  	109.468444 
3474.634417  	109.401019 
3476.066075  	109.458300 
3477.497734  	109.498771 
3478.929392  	109.490066 
3480.361050  	109.455386 
3481.792708  	109.421589 
3483.224366  	109.535094 
3484.656024  	109.642225 
3486.087683  	109.637249 
3487.519341  	109.628043 
3488.950999  	109.604618 
3490.382657  	109.625014 
3491.814315  	109.679726 
3493.245974  	109.707400 
3494.677632  	109.763806 
3496.109290  	109.786609 
3497.540948  	109.803699 
3498.972606  	109.824114 
3500.404264  	109.734666 
3501.835923  	109.725510 
3503.267581  	109.822616 
3504.699239  	109.835355 
3506.130897  	109.902362 
3507.562555  	109.967907 
3508.994214  	109.926168 
3510.425872  	109.904163 
3511.857530  	109.888515 
3513.289188  	109.905588 
3514.720846  	109.977438 
3516.152505  	110.046658 
3517.584163  	110.150393 
3519.015821  	110.132456 
3520.447479  	109.994599 
3521.879137  	109.986489 
3523.310795  	110.046350 
3524.742454  	110.099427 
3526.174112  	110.098397 
3527.605770  	110.047230 
3529.037428  	110.186456 
3530.469086  	110.363844 
3531.900745  	110.410588 
3533.332403  	110.454043 
3534.764061  	110.415141 
3536.195719  	110.447302 
3537.627377  	110.593283 
3539.059035  	110.510642 
3540.490694  	110.450912 
3541.922352  	110.524456 
3543.354010  	110.448904 
3544.785668  	110.448270 
3546.217326  	110.601855 
3547.648985  	110.705428 
3549.080643  	110.806399 
3550.512301  	110.780749 
3551.943959  	110.700760 
3553.375617  	110.800046 
3554.807276  	110.955639 
3556.238934  	111.063927 
3557.670592  	111.070312 
3559.102250  	111.033437 
3560.533908  	111.113572 
3561.965566  	111.182454 
3563.397225  	111.178217 
3564.828883  	111.064244 
3566.260541  	110.843119 
3567.692199  	111.034995 
3569.123857  	111.417169 
3570.555516  	111.395863 
3571.987174  	111.391507 
3573.418832  	111.455125 
3574.850490  	111.432639 
3576.282148  	111.463612 
3577.713807  	111.562284 
3579.145465  	111.703800 
3580.577123  	111.775999 
3582.008781  	111.688038 
3583.440439  	111.630023 
3584.872097  	111.535172 
3586.303756  	111.394328 
3587.735414  	111.588908 
3589.167072  	111.932482 
3590.598730  	111.949591 
3592.030388  	111.827495 
3593.462047  	111.701155 
3594.893705  	111.711305 
3596.325363  	111.816709 
3597.757021  	111.866592 
3599.188679  	111.913346 
3600.620337  	111.994734 
3602.051996  	112.092026 
3603.483654  	112.133648 
3604.915312  	112.165030 
3606.346970  	112.217848 
3607.778628  	112.130794 
3609.210287  	112.136336 
3610.641945  	112.373757 
3612.073603  	112.349930 
3613.505261  	112.265774 
3614.936919  	112.430940 
3616.368578  	112.392784 
3617.800236  	112.157301 
3619.231894  	112.187105 
3620.663552  	112.615646 
3622.095210  	112.797766 
3623.526868  	112.590701 
3624.958527  	112.425619 
3626.390185  	112.291090 
3627.821843  	111.962590 
3629.253501  	112.070292 
3630.685159  	112.668479 
3632.116818  	112.604804 
3633.548476  	112.595200 
3634.980134  	112.815004 
3636.411792  	112.940650 
3637.843450  	113.034041 
3639.275109  	113.028338 
3640.706767  	112.952141 
3642.138425  	113.021541 
3643.570083  	113.115181 
3645.001741  	113.006696 
3646.433399  	112.758343 
3647.865058  	112.699502 
3649.296716  	112.820799 
3650.728374  	112.894295 
3652.160032  	113.349828 
3653.591690  	113.443333 
3655.023349  	113.147788 
3656.455007  	113.200014 
3657.886665  	113.491516 
3659.318323  	113.464736 
3660.749981  	113.515956 
3662.181639  	113.531799 
3663.613298  	113.516975 
3665.044956  	113.641208 
3666.476614  	113.569896 
3667.908272  	113.362295 
3669.339930  	113.252668 
3670.771589  	113.297480 
3672.203247  	113.412059 
3673.634905  	113.174085 
3675.066563  	112.923001 
3676.498221  	113.544505 
3677.929880  	113.729686 
3679.361538  	113.705686 
3680.793196  	113.919744 
3682.224854  	113.845000 
3683.656512  	113.779942 
3685.088170  	113.786862 
3686.519829  	113.519751 
3687.951487  	113.486136 
3689.383145  	113.850416 
3690.814803  	113.801063 
3692.246461  	113.841473 
3693.678120  	113.986352 
3695.109778  	113.828261 
3696.541436  	113.686417 
3697.973094  	113.698296 
3699.404752  	113.607852 
3700.836411  	113.566406 
3702.268069  	113.828820 
3703.699727  	113.993776 
3705.131385  	113.921780 
3706.563043  	113.876926 
3707.994701  	113.778373 
3709.426360  	113.624501 
3710.858018  	113.578695 
3712.289676  	113.670852 
3713.721334  	114.056382 
3715.152992  	114.299184 
3716.584651  	114.158874 
3718.016309  	114.060914 
3719.447967  	113.999195 
3720.879625  	113.694970 
3722.311283  	113.557727 
3723.742941  	113.686289 
3725.174600  	113.663321 
3726.606258  	113.646622 
3728.037916  	113.762021 
3729.469574  	113.768269 
3730.901232  	113.696609 
3732.332891  	113.654479 
3733.764549  	113.495413 
3735.196207  	113.341823 
3736.627865  	113.941149 
3738.059523  	114.346342 
3739.491182  	114.090437 
3740.922840  	114.062688 
3742.354498  	113.953789 
3743.786156  	113.510642 
3745.217814  	114.109163 
3746.649472  	114.534113 
3748.081131  	113.988697 
3749.512789  	113.822495 
3750.944447  	113.998238 
3752.376105  	114.099375 
3753.807763  	114.459497 
3755.239422  	114.330570 
3756.671080  	114.167244 
3758.102738  	114.343652 
3759.534396  	114.210579 
3760.966054  	114.141441 
3762.397712  	114.384183 
3763.829371  	114.253672 
3765.261029  	114.097701 
3766.692687  	114.251598 
3768.124345  	114.181327 
3769.556003  	114.024731 
3770.987662  	114.188266 
3772.419320  	114.376864 
3773.850978  	114.343128 
3775.282636  	114.302293 
3776.714294  	114.369368 
3778.145953  	114.293656 
3779.577611  	114.139259 
3781.009269  	114.230885 
3782.440927  	114.223542 
3783.872585  	114.059979 
3785.304243  	114.080652 
3786.735902  	114.213270 
3788.167560  	114.202227 
3789.599218  	114.072151 
3791.030876  	114.017234 
3792.462534  	114.163138 
3793.894193  	114.252394 
3795.325851  	114.133561 
3796.757509  	114.046691 
3798.189167  	114.026944 
3799.620825  	113.809315 
3801.052484  	113.540719 
3802.484142  	113.854521 
3803.915800  	114.133125 
3805.347458  	113.896386 
3806.779116  	113.902204 
3808.210774  	114.406810 
3809.642433  	114.379196 
3811.074091  	114.203634 
3812.505749  	114.247694 
3813.937407  	114.155668 
3815.369065  	113.977070 
3816.800724  	114.188537 
3818.232382  	114.218241 
3819.664040  	113.816146 
3821.095698  	113.684823 
3822.527356  	114.262551 
3823.959014  	114.268049 
3825.390673  	114.089543 
3826.822331  	114.225802 
3828.253989  	114.264812 
3829.685647  	114.051704 
3831.117305  	113.971073 
3832.548964  	114.072513 
3833.980622  	114.134394 
3835.412280  	114.010596 
3836.843938  	113.823022 
3838.275596  	113.824413 
3839.707255  	113.859040 
3841.138913  	113.857493 
3842.570571  	113.960875 
3844.002229  	114.120564 
3845.433887  	114.293887 
3846.865545  	114.278706 
3848.297204  	114.118305 
3849.728862  	114.066844 
3851.160520  	113.898527 
3852.592178  	113.486539 
3854.023836  	113.662762 
3855.455495  	114.182892 
3856.887153  	114.236658 
3858.318811  	114.302068 
3859.750469  	114.176393 
3861.182127  	113.994622 
3862.613786  	113.939128 
3864.045444  	113.784314 
3865.477102  	113.921709 
3866.908760  	114.240007 
3868.340418  	113.956049 
3869.772076  	113.646692 
3871.203735  	114.070523 
3872.635393  	114.120439 
3874.067051  	113.956015 
3875.498709  	114.170592 
3876.930367  	114.237902 
3878.362026  	114.032802 
3879.793684  	113.961915 
3881.225342  	114.214102 
3882.657000  	114.289347 
3884.088658  	113.942999 
3885.520316  	113.657506 
3886.951975  	114.066107 
3888.383633  	114.255193 
3889.815291  	113.972700 
3891.246949  	113.898781 
3892.678607  	114.193285 
3894.110266  	114.269133 
3895.541924  	114.218190 
3896.973582  	114.096204 
3898.405240  	113.902017 
3899.836898  	113.855675 
3901.268557  	113.863994 
3902.700215  	113.755219 
3904.131873  	113.813188 
3905.563531  	114.107979 
3906.995189  	114.273563 
3908.426847  	114.242872 
3909.858506  	114.176776 
3911.290164  	114.219960 
3912.721822  	114.321877 
3914.153480  	114.288613 
3915.585138  	114.099607 
3917.016797  	113.923985 
3918.448455  	113.915557 
3919.880113  	114.003118 
3921.311771  	114.099783 
3922.743429  	114.065508 
3924.175088  	113.962631 
3925.606746  	114.085891 
3927.038404  	114.205358 
3928.470062  	114.101359 
3929.901720  	114.061347 
3931.333378  	114.040712 
3932.765037  	113.970604 
3934.196695  	114.082036 
3935.628353  	114.130249 
3937.060011  	114.070328 
3938.491669  	114.105472 
3939.923328  	114.037705 
3941.354986  	113.886301 
3942.786644  	113.887148 
3944.218302  	113.985729 
3945.649960  	114.099831 
3947.081618  	114.144156 
3948.513277  	114.095357 
3949.944935  	114.104394 
3951.376593  	114.096183 
3952.808251  	114.052327 
3954.239909  	114.064598 
3955.671568  	114.059386 
3957.103226  	114.097975 
3958.534884  	114.157941 
3959.966542  	114.103426 
3961.398200  	114.067103 
3962.829859  	114.084113 
3964.261517  	114.078642 
3965.693175  	114.081499 
3967.124833  	114.044830 
3968.556491  	113.997972 
3969.988149  	113.985952 
3971.419808  	113.975943 
3972.851466  	114.002145 
3974.283124  	113.994593 
3975.714782  	113.958155 
3977.146440  	113.997724 
3978.578099  	114.045707 
3980.009757  	114.119746 
3981.441415  	114.148699 
3982.873073  	113.974841 
3984.304731  	113.869502 
3985.736389  	113.984948 
3987.168048  	114.066724 
3988.599706  	114.002736 
3990.031364  	113.895683 
3991.463022  	113.922085 
3992.894680  	114.024139 
3994.326339  	114.024522 
3995.757997  	114.060364 
3997.189655  	114.096740 
3998.621313  	113.986322 
4000.052971  	113.946335 