##TITLE=No Description
##DATA TYPE=INFRARED SPECTRUM
##XUNITS=1/CM
##YUNITS=Abs
399.432634  	0.075800 
400.864292  	0.070338 
402.295950  	0.067536 
403.727608  	0.091464 
405.159267  	0.122238 
406.590925  	0.100005 
408.022583  	0.073269 
409.454241  	0.087638 
410.885899  	0.095406 
412.317558  	0.076024 
413.749216  	0.056136 
415.180874  	0.056349 
416.612532  	0.078027 
418.044190  	0.095992 
419.475848  	0.064622 
420.907507  	0.046330 
422.339165  	0.057452 
423.770823  	0.067554 
425.202481  	0.066686 
426.634139  	0.052390 
428.065798  	0.030743 
429.497456  	0.028989 
430.929114  	0.043645 
432.360772  	0.042612 
433.792430  	0.030628 
435.224089  	0.028432 
436.655747  	0.029875 
438.087405  	0.030570 
439.519063  	0.034177 
440.950721  	0.032384 
442.382379  	0.030165 
443.814038  	0.041699 
445.245696  	0.042258 
446.677354  	0.026092 
448.109012  	0.027381 
449.540670  	0.037508 
450.972329  	0.033852 
452.403987  	0.033540 
453.835645  	0.034722 
455.267303  	0.028343 
456.698961  	0.030556 
458.130619  	0.035704 
459.562278  	0.032517 
460.993936  	0.037518 
462.425594  	0.043120 
463.857252  	0.043458 
465.288910  	0.049592 
466.720569  	0.054660 
468.152227  	0.054105 
469.583885  	0.052768 
471.015543  	0.047651 
472.447201  	0.046853 
473.878860  	0.052141 
475.310518  	0.049088 
476.742176  	0.043683 
478.173834  	0.045910 
479.605492  	0.051834 
481.037150  	0.056341 
482.468809  	0.057469 
483.900467  	0.060008 
485.332125  	0.070855 
486.763783  	0.080473 
488.195441  	0.078709 
489.627100  	0.073129 
491.058758  	0.072496 
492.490416  	0.073411 
493.922074  	0.072584 
495.353732  	0.072336 
496.785391  	0.071110 
498.217049  	0.069147 
499.648707  	0.069854 
501.080365  	0.070728 
502.512023  	0.069029 
503.943681  	0.067188 
505.375340  	0.067360 
506.806998  	0.069817 
508.238656  	0.071105 
509.670314  	0.070739 
511.101972  	0.071727 
512.533631  	0.071741 
513.965289  	0.070393 
515.396947  	0.070094 
516.828605  	0.069663 
518.260263  	0.070273 
519.691921  	0.072198 
521.123580  	0.074332 
522.555238  	0.080676 
523.986896  	0.090198 
525.418554  	0.098196 
526.850212  	0.105083 
528.281871  	0.110332 
529.713529  	0.113712 
531.145187  	0.119687 
532.576845  	0.129066 
534.008503  	0.138640 
535.440162  	0.148870 
536.871820  	0.161373 
538.303478  	0.173873 
539.735136  	0.184500 
541.166794  	0.197825 
542.598452  	0.216058 
544.030111  	0.234695 
545.461769  	0.253219 
546.893427  	0.272882 
548.325085  	0.293332 
549.756743  	0.314702 
551.188402  	0.331121 
552.620060  	0.341257 
554.051718  	0.346891 
555.483376  	0.339978 
556.915034  	0.324010 
558.346692  	0.306539 
559.778351  	0.285613 
561.210009  	0.265249 
562.641667  	0.243493 
564.073325  	0.214329 
565.504983  	0.180045 
566.936642  	0.139552 
568.368300  	0.099496 
569.799958  	0.073015 
571.231616  	0.060737 
572.663274  	0.059694 
574.094933  	0.065061 
575.526591  	0.068640 
576.958249  	0.068385 
578.389907  	0.065942 
579.821565  	0.060652 
581.253223  	0.055085 
582.684882  	0.051428 
584.116540  	0.048073 
585.548198  	0.045597 
586.979856  	0.043758 
588.411514  	0.040733 
589.843173  	0.037446 
591.274831  	0.034357 
592.706489  	0.031186 
594.138147  	0.029323 
595.569805  	0.027915 
597.001464  	0.025619 
598.433122  	0.024453 
599.864780  	0.024781 
601.296438  	0.024089 
602.728096  	0.022507 
604.159754  	0.021305 
605.591413  	0.019949 
607.023071  	0.018824 
608.454729  	0.018833 
609.886387  	0.019129 
611.318045  	0.018765 
612.749704  	0.018268 
614.181362  	0.018241 
615.613020  	0.018282 
617.044678  	0.017791 
618.476336  	0.017389 
619.907994  	0.018011 
621.339653  	0.019191 
622.771311  	0.020426 
624.202969  	0.022242 
625.634627  	0.024071 
627.066285  	0.025257 
628.497944  	0.027515 
629.929602  	0.031372 
631.361260  	0.034324 
632.792918  	0.034974 
634.224576  	0.034622 
635.656235  	0.033774 
637.087893  	0.031563 
638.519551  	0.028707 
639.951209  	0.025867 
641.382867  	0.022958 
642.814525  	0.021619 
644.246184  	0.022670 
645.677842  	0.023473 
647.109500  	0.023368 
648.541158  	0.024166 
649.972816  	0.024708 
651.404475  	0.024855 
652.836133  	0.026417 
654.267791  	0.027404 
655.699449  	0.026737 
657.131107  	0.026808 
658.562766  	0.027504 
659.994424  	0.027721 
661.426082  	0.028055 
662.857740  	0.028338 
664.289398  	0.028815 
665.721056  	0.030721 
667.152715  	0.035260 
668.584373  	0.039206 
670.016031  	0.036319 
671.447689  	0.034798 
672.879347  	0.036066 
674.311006  	0.038206 
675.742664  	0.039205 
677.174322  	0.039862 
678.605980  	0.041546 
680.037638  	0.043834 
681.469296  	0.046344 
682.900955  	0.050766 
684.332613  	0.057355 
685.764271  	0.063369 
687.195929  	0.066984 
688.627587  	0.067126 
690.059246  	0.064787 
691.490904  	0.063225 
692.922562  	0.063056 
694.354220  	0.064494 
695.785878  	0.067992 
697.217537  	0.072708 
698.649195  	0.078851 
700.080853  	0.086600 
701.512511  	0.094690 
702.944169  	0.102247 
704.375827  	0.108027 
705.807486  	0.111490 
707.239144  	0.112273 
708.670802  	0.109705 
710.102460  	0.105711 
711.534118  	0.100629 
712.965777  	0.094417 
714.397435  	0.089466 
715.829093  	0.085299 
717.260751  	0.081000 
718.692409  	0.077903 
720.124067  	0.076975 
721.555726  	0.079052 
722.987384  	0.083033 
724.419042  	0.086803 
725.850700  	0.090370 
727.282358  	0.093223 
728.714017  	0.094640 
730.145675  	0.095546 
731.577333  	0.095911 
733.008991  	0.094988 
734.440649  	0.092139 
735.872308  	0.088597 
737.303966  	0.087611 
738.735624  	0.089116 
740.167282  	0.091599 
741.598940  	0.095215 
743.030598  	0.099389 
744.462257  	0.105265 
745.893915  	0.113226 
747.325573  	0.120385 
748.757231  	0.128297 
750.188889  	0.138905 
751.620548  	0.149445 
753.052206  	0.159915 
754.483864  	0.170761 
755.915522  	0.180573 
757.347180  	0.189290 
758.778839  	0.195919 
760.210497  	0.200883 
761.642155  	0.205051 
763.073813  	0.208058 
764.505471  	0.212263 
765.937129  	0.217410 
767.368788  	0.219666 
768.800446  	0.217536 
770.232104  	0.209746 
771.663762  	0.196227 
773.095420  	0.179253 
774.527079  	0.161336 
775.958737  	0.144481 
777.390395  	0.129387 
778.822053  	0.117091 
780.253711  	0.108094 
781.685369  	0.100701 
783.117028  	0.094113 
784.548686  	0.089024 
785.980344  	0.085555 
787.412002  	0.083594 
788.843660  	0.082468 
790.275319  	0.081481 
791.706977  	0.080876 
793.138635  	0.081035 
794.570293  	0.083231 
796.001951  	0.087904 
797.433610  	0.093846 
798.865268  	0.102443 
800.296926  	0.115211 
801.728584  	0.131230 
803.160242  	0.150909 
804.591900  	0.173050 
806.023559  	0.195522 
807.455217  	0.219313 
808.886875  	0.243595 
810.318533  	0.266875 
811.750191  	0.286879 
813.181850  	0.299470 
814.613508  	0.304965 
816.045166  	0.303931 
817.476824  	0.298758 
818.908482  	0.295817 
820.340141  	0.298101 
821.771799  	0.308411 
823.203457  	0.327983 
824.635115  	0.352225 
826.066773  	0.376804 
827.498431  	0.394364 
828.930090  	0.397336 
830.361748  	0.385937 
831.793406  	0.362080 
833.225064  	0.332151 
834.656722  	0.301354 
836.088381  	0.270413 
837.520039  	0.242840 
838.951697  	0.220460 
840.383355  	0.202547 
841.815013  	0.188978 
843.246671  	0.177677 
844.678330  	0.166330 
846.109988  	0.153950 
847.541646  	0.139738 
848.973304  	0.124492 
850.404962  	0.108737 
851.836621  	0.092429 
853.268279  	0.077042 
854.699937  	0.063588 
856.131595  	0.052025 
857.563253  	0.042843 
858.994912  	0.036233 
860.426570  	0.031597 
861.858228  	0.028642 
863.289886  	0.027198 
864.721544  	0.027068 
866.153202  	0.028301 
867.584861  	0.031001 
869.016519  	0.035084 
870.448177  	0.040272 
871.879835  	0.046935 
873.311493  	0.054919 
874.743152  	0.063282 
876.174810  	0.073192 
877.606468  	0.085445 
879.038126  	0.098761 
880.469784  	0.112992 
881.901443  	0.127565 
883.333101  	0.141919 
884.764759  	0.155468 
886.196417  	0.164226 
887.628075  	0.165407 
889.059733  	0.157868 
890.491392  	0.140363 
891.923050  	0.115435 
893.354708  	0.088010 
894.786366  	0.063127 
896.218024  	0.044466 
897.649683  	0.032656 
899.081341  	0.026077 
900.512999  	0.022703 
901.944657  	0.020837 
903.376315  	0.020068 
904.807973  	0.020438 
906.239632  	0.021561 
907.671290  	0.023393 
909.102948  	0.025344 
910.534606  	0.027176 
911.966264  	0.030044 
913.397923  	0.034004 
914.829581  	0.037999 
916.261239  	0.041432 
917.692897  	0.044073 
919.124555  	0.045305 
920.556214  	0.044081 
921.987872  	0.041143 
923.419530  	0.038000 
924.851188  	0.035047 
926.282846  	0.033658 
927.714504  	0.034635 
929.146163  	0.036916 
930.577821  	0.040527 
932.009479  	0.045014 
933.441137  	0.048871 
934.872795  	0.051743 
936.304454  	0.053038 
937.736112  	0.053434 
939.167770  	0.054735 
940.599428  	0.056501 
942.031086  	0.058074 
943.462744  	0.059061 
944.894403  	0.058384 
946.326061  	0.056554 
947.757719  	0.054500 
949.189377  	0.052683 
950.621035  	0.052047 
952.052694  	0.052709 
953.484352  	0.054658 
954.916010  	0.058105 
956.347668  	0.062005 
957.779326  	0.065347 
959.210985  	0.067631 
960.642643  	0.068582 
962.074301  	0.068602 
963.505959  	0.068268 
964.937617  	0.068116 
966.369275  	0.068069 
967.800934  	0.068049 
969.232592  	0.068716 
970.664250  	0.069870 
972.095908  	0.071238 
973.527566  	0.073356 
974.959225  	0.076084 
976.390883  	0.079468 
977.822541  	0.083421 
979.254199  	0.087392 
980.685857  	0.092057 
982.117516  	0.097631 
983.549174  	0.104102 
984.980832  	0.112295 
986.412490  	0.122022 
987.844148  	0.133838 
989.275806  	0.147938 
990.707465  	0.162177 
992.139123  	0.175449 
993.570781  	0.186031 
995.002439  	0.193357 
996.434097  	0.201362 
997.865756  	0.213694 
999.297414  	0.235128 
1000.729072  	0.270257 
1002.160730  	0.316288 
1003.592388  	0.364452 
1005.024046  	0.400565 
1006.455705  	0.417386 
1007.887363  	0.425287 
1009.319021  	0.439377 
1010.750679  	0.483336 
1012.182337  	0.570338 
1013.613996  	0.640104 
1015.045654  	0.586722 
1016.477312  	0.443645 
1017.908970  	0.309766 
1019.340628  	0.214396 
1020.772287  	0.151320 
1022.203945  	0.109415 
1023.635603  	0.079020 
1025.067261  	0.057062 
1026.498919  	0.043648 
1027.930577  	0.036983 
1029.362236  	0.034358 
1030.793894  	0.034216 
1032.225552  	0.035626 
1033.657210  	0.037647 
1035.088868  	0.040258 
1036.520527  	0.043235 
1037.952185  	0.046055 
1039.383843  	0.049114 
1040.815501  	0.052334 
1042.247159  	0.055457 
1043.678818  	0.058917 
1045.110476  	0.062555 
1046.542134  	0.065864 
1047.973792  	0.069077 
1049.405450  	0.072858 
1050.837108  	0.076835 
1052.268767  	0.080411 
1053.700425  	0.084321 
1055.132083  	0.088430 
1056.563741  	0.092442 
1057.995399  	0.097347 
1059.427058  	0.102611 
1060.858716  	0.108060 
1062.290374  	0.114556 
1063.722032  	0.121401 
1065.153690  	0.129257 
1066.585348  	0.139223 
1068.017007  	0.151168 
1069.448665  	0.166333 
1070.880323  	0.185319 
1072.311981  	0.209601 
1073.743639  	0.243296 
1075.175298  	0.292226 
1076.606956  	0.365529 
1078.038614  	0.453448 
1079.470272  	0.507578 
1080.901930  	0.489870 
1082.333589  	0.415247 
1083.765247  	0.326619 
1085.196905  	0.250206 
1086.628563  	0.194158 
1088.060221  	0.160620 
1089.491879  	0.145661 
1090.923538  	0.143693 
1092.355196  	0.150600 
1093.786854  	0.162599 
1095.218512  	0.179180 
1096.650170  	0.202331 
1098.081829  	0.229408 
1099.513487  	0.256007 
1100.945145  	0.275512 
1102.376803  	0.281453 
1103.808461  	0.278651 
1105.240120  	0.273104 
1106.671778  	0.269578 
1108.103436  	0.271096 
1109.535094  	0.271041 
1110.966752  	0.265440 
1112.398410  	0.256936 
1113.830069  	0.247621 
1115.261727  	0.241220 
1116.693385  	0.237988 
1118.125043  	0.236498 
1119.556701  	0.238746 
1120.988360  	0.244025 
1122.420018  	0.251373 
1123.851676  	0.261402 
1125.283334  	0.273015 
1126.714992  	0.287257 
1128.146650  	0.302911 
1129.578309  	0.318562 
1131.009967  	0.337876 
1132.441625  	0.358817 
1133.873283  	0.380635 
1135.304941  	0.406721 
1136.736600  	0.433856 
1138.168258  	0.464492 
1139.599916  	0.500273 
1141.031574  	0.537198 
1142.463232  	0.581000 
1143.894891  	0.628771 
1145.326549  	0.677942 
1146.758207  	0.736530 
1148.189865  	0.795348 
1149.621523  	0.859343 
1151.053181  	0.934819 
1152.484840  	1.005373 
1153.916498  	1.087986 
1155.348156  	1.172748 
1156.779814  	1.237439 
1158.211472  	1.296223 
1159.643131  	1.279063 
1161.074789  	1.191722 
1162.506447  	1.073088 
1163.938105  	0.926015 
1165.369763  	0.792600 
1166.801421  	0.675426 
1168.233080  	0.576191 
1169.664738  	0.508676 
1171.096396  	0.473124 
1172.528054  	0.473319 
1173.959712  	0.513104 
1175.391371  	0.581330 
1176.823029  	0.664504 
1178.254687  	0.748004 
1179.686345  	0.823562 
1181.118003  	0.912651 
1182.549662  	1.013177 
1183.981320  	1.112480 
1185.412978  	1.201014 
1186.844636  	1.213495 
1188.276294  	1.169345 
1189.707952  	1.095636 
1191.139611  	0.995124 
1192.571269  	0.907336 
1194.002927  	0.823145 
1195.434585  	0.740936 
1196.866243  	0.671108 
1198.297902  	0.604320 
1199.729560  	0.544940 
1201.161218  	0.494519 
1202.592876  	0.449577 
1204.024534  	0.418045 
1205.456193  	0.403203 
1206.887851  	0.409270 
1208.319509  	0.444632 
1209.751167  	0.505265 
1211.182825  	0.584416 
1212.614483  	0.674344 
1214.046142  	0.751525 
1215.477800  	0.811736 
1216.909458  	0.848784 
1218.341116  	0.853708 
1219.772774  	0.848287 
1221.204433  	0.826452 
1222.636091  	0.793790 
1224.067749  	0.764281 
1225.499407  	0.727640 
1226.931065  	0.693406 
1228.362723  	0.663025 
1229.794382  	0.630088 
1231.226040  	0.602610 
1232.657698  	0.575393 
1234.089356  	0.548527 
1235.521014  	0.526911 
1236.952673  	0.503510 
1238.384331  	0.482173 
1239.815989  	0.464011 
1241.247647  	0.443708 
1242.679305  	0.425474 
1244.110964  	0.406451 
1245.542622  	0.384642 
1246.974280  	0.363705 
1248.405938  	0.340004 
1249.837596  	0.314797 
1251.269254  	0.289757 
1252.700913  	0.262463 
1254.132571  	0.235439 
1255.564229  	0.208527 
1256.995887  	0.181374 
1258.427545  	0.156405 
1259.859204  	0.132486 
1261.290862  	0.109896 
1262.722520  	0.090512 
1264.154178  	0.073813 
1265.585836  	0.059808 
1267.017495  	0.048807 
1268.449153  	0.040084 
1269.880811  	0.033393 
1271.312469  	0.028538 
1272.744127  	0.024964 
1274.175785  	0.022834 
1275.607444  	0.022026 
1277.039102  	0.022153 
1278.470760  	0.023533 
1279.902418  	0.025899 
1281.334076  	0.028835 
1282.765735  	0.032420 
1284.197393  	0.036339 
1285.629051  	0.040318 
1287.060709  	0.043993 
1288.492367  	0.047105 
1289.924025  	0.049391 
1291.355684  	0.049916 
1292.787342  	0.048288 
1294.219000  	0.044597 
1295.650658  	0.039014 
1297.082316  	0.032377 
1298.513975  	0.025634 
1299.945633  	0.019200 
1301.377291  	0.013788 
1302.808949  	0.009792 
1304.240607  	0.007036 
1305.672266  	0.006359 
1307.103924  	0.007770 
1308.535582  	0.009696 
1309.967240  	0.010134 
1311.398898  	0.007491 
1312.830556  	0.002045 
1314.262215  	-0.004399 
1315.693873  	-0.010221 
1317.125531  	-0.014295 
1318.557189  	-0.016851 
1319.988847  	-0.018968 
1321.420506  	-0.020221 
1322.852164  	-0.020960 
1324.283822  	-0.021614 
1325.715480  	-0.021881 
1327.147138  	-0.022509 
1328.578796  	-0.023121 
1330.010455  	-0.023204 
1331.442113  	-0.023571 
1332.873771  	-0.023885 
1334.305429  	-0.024083 
1335.737087  	-0.024285 
1337.168746  	-0.024000 
1338.600404  	-0.024015 
1340.032062  	-0.024264 
1341.463720  	-0.024364 
1342.895378  	-0.024831 
1344.327037  	-0.024867 
1345.758695  	-0.024682 
1347.190353  	-0.024613 
1348.622011  	-0.023933 
1350.053669  	-0.023712 
1351.485327  	-0.023688 
1352.916986  	-0.022955 
1354.348644  	-0.022373 
1355.780302  	-0.020956 
1357.211960  	-0.018579 
1358.643618  	-0.014510 
1360.075277  	-0.004839 
1361.506935  	0.011032 
1362.938593  	0.030214 
1364.370251  	0.040154 
1365.801909  	0.034732 
1367.233568  	0.020511 
1368.665226  	0.004493 
1370.096884  	-0.007305 
1371.528542  	-0.013688 
1372.960200  	-0.016556 
1374.391858  	-0.018568 
1375.823517  	-0.019336 
1377.255175  	-0.019066 
1378.686833  	-0.018449 
1380.118491  	-0.016299 
1381.550149  	-0.012354 
1382.981808  	-0.005153 
1384.413466  	0.003942 
1385.845124  	0.010829 
1387.276782  	0.011789 
1388.708440  	0.006175 
1390.140098  	-0.000479 
1391.571757  	-0.006915 
1393.003415  	-0.011015 
1394.435073  	-0.012603 
1395.866731  	-0.013318 
1397.298389  	-0.012250 
1398.730048  	-0.009623 
1400.161706  	-0.006522 
1401.593364  	-0.001855 
1403.025022  	0.004852 
1404.456680  	0.013078 
1405.888339  	0.023267 
1407.319997  	0.032685 
1408.751655  	0.037731 
1410.183313  	0.038204 
1411.614971  	0.032266 
1413.046629  	0.021639 
1414.478288  	0.010797 
1415.909946  	0.000285 
1417.341604  	-0.007470 
1418.773262  	-0.012735 
1420.204920  	-0.018430 
1421.636579  	-0.020553 
1423.068237  	-0.021356 
1424.499895  	-0.023312 
1425.931553  	-0.023993 
1427.363211  	-0.024128 
1428.794870  	-0.024391 
1430.226528  	-0.023905 
1431.658186  	-0.024427 
1433.089844  	-0.024506 
1434.521502  	-0.023398 
1435.953160  	-0.023004 
1437.384819  	-0.022019 
1438.816477  	-0.020531 
1440.248135  	-0.018656 
1441.679793  	-0.015403 
1443.111451  	-0.013010 
1444.543110  	-0.010777 
1445.974768  	-0.008066 
1447.406426  	-0.006219 
1448.838084  	-0.003438 
1450.269742  	-0.001112 
1451.701400  	-0.000529 
1453.133059  	-0.000289 
1454.564717  	-0.000087 
1455.996375  	0.001388 
1457.428033  	0.006255 
1458.859691  	0.010757 
1460.291350  	0.017115 
1461.723008  	0.023415 
1463.154666  	0.027946 
1464.586324  	0.030937 
1466.017982  	0.028888 
1467.449641  	0.026609 
1468.881299  	0.024425 
1470.312957  	0.021601 
1471.744615  	0.020630 
1473.176273  	0.017634 
1474.607931  	0.015384 
1476.039590  	0.016627 
1477.471248  	0.016070 
1478.902906  	0.017080 
1480.334564  	0.020868 
1481.766222  	0.024031 
1483.197881  	0.029955 
1484.629539  	0.038370 
1486.061197  	0.047293 
1487.492855  	0.061540 
1488.924513  	0.077759 
1490.356172  	0.096475 
1491.787830  	0.125257 
1493.219488  	0.150920 
1494.651146  	0.177976 
1496.082804  	0.216209 
1497.514462  	0.253518 
1498.946121  	0.292536 
1500.377779  	0.331453 
1501.809437  	0.351221 
1503.241095  	0.363562 
1504.672753  	0.365067 
1506.104412  	0.335389 
1507.536070  	0.273419 
1508.967728  	0.218790 
1510.399386  	0.172024 
1511.831044  	0.128164 
1513.262702  	0.087961 
1514.694361  	0.060062 
1516.126019  	0.040927 
1517.557677  	0.020733 
1518.989335  	0.009147 
1520.420993  	0.004640 
1521.852652  	-0.004813 
1523.284310  	-0.010714 
1524.715968  	-0.011948 
1526.147626  	-0.016138 
1527.579284  	-0.019105 
1529.010943  	-0.020721 
1530.442601  	-0.023046 
1531.874259  	-0.023227 
1533.305917  	-0.024089 
1534.737575  	-0.027042 
1536.169233  	-0.027150 
1537.600892  	-0.027271 
1539.032550  	-0.027485 
1540.464208  	-0.027763 
1541.895866  	-0.030303 
1543.327524  	-0.030369 
1544.759183  	-0.030666 
1546.190841  	-0.032362 
1547.622499  	-0.032017 
1549.054157  	-0.031741 
1550.485815  	-0.032737 
1551.917473  	-0.032736 
1553.349132  	-0.032719 
1554.780790  	-0.033200 
1556.212448  	-0.032967 
1557.644106  	-0.032157 
1559.075764  	-0.032083 
1560.507423  	-0.035497 
1561.939081  	-0.035428 
1563.370739  	-0.034635 
1564.802397  	-0.034948 
1566.234055  	-0.035296 
1567.665714  	-0.034644 
1569.097372  	-0.034438 
1570.529030  	-0.034832 
1571.960688  	-0.034765 
1573.392346  	-0.034258 
1574.824004  	-0.033437 
1576.255663  	-0.033432 
1577.687321  	-0.033627 
1579.118979  	-0.032743 
1580.550637  	-0.031798 
1581.982295  	-0.030457 
1583.413954  	-0.028357 
1584.845612  	-0.025682 
1586.277270  	-0.022282 
1587.708928  	-0.017880 
1589.140586  	-0.012658 
1590.572245  	-0.008189 
1592.003903  	-0.004934 
1593.435561  	-0.003391 
1594.867219  	-0.003985 
1596.298877  	-0.005037 
1597.730535  	-0.005591 
1599.162194  	-0.005007 
1600.593852  	-0.003724 
1602.025510  	-0.003136 
1603.457168  	-0.003416 
1604.888826  	-0.005359 
1606.320485  	-0.008643 
1607.752143  	-0.012593 
1609.183801  	-0.017392 
1610.615459  	-0.021499 
1612.047117  	-0.024847 
1613.478775  	-0.027107 
1614.910434  	-0.027893 
1616.342092  	-0.028949 
1617.773750  	-0.031099 
1619.205408  	-0.032074 
1620.637066  	-0.032182 
1622.068725  	-0.032071 
1623.500383  	-0.032985 
1624.932041  	-0.034039 
1626.363699  	-0.033823 
1627.795357  	-0.033880 
1629.227016  	-0.034338 
1630.658674  	-0.034201 
1632.090332  	-0.033921 
1633.521990  	-0.033150 
1634.953648  	-0.031954 
1636.385306  	-0.032159 
1637.816965  	-0.032296 
1639.248623  	-0.031751 
1640.680281  	-0.031722 
1642.111939  	-0.031647 
1643.543597  	-0.030990 
1644.975256  	-0.030039 
1646.406914  	-0.029436 
1647.838572  	-0.030439 
1649.270230  	-0.030850 
1650.701888  	-0.029980 
1652.133547  	-0.028693 
1653.565205  	-0.029673 
1654.996863  	-0.031657 
1656.428521  	-0.031223 
1657.860179  	-0.030691 
1659.291837  	-0.030888 
1660.723496  	-0.031114 
1662.155154  	-0.031185 
1663.586812  	-0.031743 
1665.018470  	-0.031894 
1666.450128  	-0.031760 
1667.881787  	-0.031641 
1669.313445  	-0.031652 
1670.745103  	-0.032884 
1672.176761  	-0.033494 
1673.608419  	-0.032857 
1675.040077  	-0.033000 
1676.471736  	-0.034070 
1677.903394  	-0.034021 
1679.335052  	-0.033888 
1680.766710  	-0.033810 
1682.198368  	-0.033177 
1683.630027  	-0.032311 
1685.061685  	-0.033828 
1686.493343  	-0.034341 
1687.925001  	-0.033266 
1689.356659  	-0.032806 
1690.788318  	-0.032999 
1692.219976  	-0.032270 
1693.651634  	-0.031163 
1695.083292  	-0.029757 
1696.514950  	-0.029424 
1697.946608  	-0.029585 
1699.378267  	-0.027553 
1700.809925  	-0.026843 
1702.241583  	-0.027396 
1703.673241  	-0.024939 
1705.104899  	-0.023552 
1706.536558  	-0.023364 
1707.968216  	-0.021437 
1709.399874  	-0.020532 
1710.831532  	-0.019370 
1712.263190  	-0.017325 
1713.694849  	-0.016140 
1715.126507  	-0.013634 
1716.558165  	-0.011387 
1717.989823  	-0.011338 
1719.421481  	-0.009361 
1720.853139  	-0.007652 
1722.284798  	-0.005268 
1723.716456  	-0.001924 
1725.148114  	-0.000089 
1726.579772  	0.002900 
1728.011430  	0.006200 
1729.443089  	0.008321 
1730.874747  	0.011869 
1732.306405  	0.014470 
1733.738063  	0.016561 
1735.169721  	0.019069 
1736.601379  	0.020226 
1738.033038  	0.024211 
1739.464696  	0.028218 
1740.896354  	0.030149 
1742.328012  	0.035736 
1743.759670  	0.040242 
1745.191329  	0.045015 
1746.622987  	0.054136 
1748.054645  	0.061872 
1749.486303  	0.072575 
1750.917961  	0.087572 
1752.349620  	0.101825 
1753.781278  	0.122810 
1755.212936  	0.145973 
1756.644594  	0.173398 
1758.076252  	0.215833 
1759.507910  	0.257614 
1760.939569  	0.302809 
1762.371227  	0.367145 
1763.802885  	0.421989 
1765.234543  	0.465502 
1766.666201  	0.506898 
1768.097860  	0.519635 
1769.529518  	0.521724 
1770.961176  	0.521572 
1772.392834  	0.485290 
1773.824492  	0.453016 
1775.256150  	0.429501 
1776.687809  	0.392428 
1778.119467  	0.363052 
1779.551125  	0.333309 
1780.982783  	0.294191 
1782.414441  	0.265478 
1783.846100  	0.237503 
1785.277758  	0.205706 
1786.709416  	0.180216 
1788.141074  	0.153920 
1789.572732  	0.130702 
1791.004391  	0.111717 
1792.436049  	0.085071 
1793.867707  	0.064775 
1795.299365  	0.051439 
1796.731023  	0.036073 
1798.162681  	0.025965 
1799.594340  	0.016774 
1801.025998  	0.006946 
1802.457656  	0.001744 
1803.889314  	-0.004858 
1805.320972  	-0.009353 
1806.752631  	-0.011667 
1808.184289  	-0.016379 
1809.615947  	-0.018205 
1811.047605  	-0.019984 
1812.479263  	-0.023364 
1813.910922  	-0.023682 
1815.342580  	-0.025611 
1816.774238  	-0.027511 
1818.205896  	-0.027495 
1819.637554  	-0.029442 
1821.069212  	-0.029770 
1822.500871  	-0.030018 
1823.932529  	-0.031463 
1825.364187  	-0.030704 
1826.795845  	-0.032045 
1828.227503  	-0.032854 
1829.659162  	-0.031744 
1831.090820  	-0.033794 
1832.522478  	-0.033646 
1833.954136  	-0.033352 
1835.385794  	-0.035336 
1836.817452  	-0.034668 
1838.249111  	-0.035100 
1839.680769  	-0.036464 
1841.112427  	-0.035282 
1842.544085  	-0.035914 
1843.975743  	-0.036574 
1845.407402  	-0.036366 
1846.839060  	-0.037633 
1848.270718  	-0.036764 
1849.702376  	-0.036924 
1851.134034  	-0.037650 
1852.565693  	-0.036263 
1853.997351  	-0.037238 
1855.429009  	-0.037688 
1856.860667  	-0.036554 
1858.292325  	-0.037666 
1859.723983  	-0.037397 
1861.155642  	-0.037579 
1862.587300  	-0.039254 
1864.018958  	-0.038449 
1865.450616  	-0.038678 
1866.882274  	-0.038733 
1868.313933  	-0.037191 
1869.745591  	-0.038775 
1871.177249  	-0.038421 
1872.608907  	-0.037444 
1874.040565  	-0.038708 
1875.472224  	-0.037866 
1876.903882  	-0.037420 
1878.335540  	-0.038196 
1879.767198  	-0.037773 
1881.198856  	-0.038365 
1882.630514  	-0.037658 
1884.062173  	-0.036627 
1885.493831  	-0.037506 
1886.925489  	-0.036364 
1888.357147  	-0.035842 
1889.788805  	-0.036463 
1891.220464  	-0.034859 
1892.652122  	-0.034528 
1894.083780  	-0.033814 
1895.515438  	-0.032535 
1896.947096  	-0.033264 
1898.378754  	-0.032884 
1899.810413  	-0.033336 
1901.242071  	-0.034224 
1902.673729  	-0.032845 
1904.105387  	-0.033759 
1905.537045  	-0.034962 
1906.968704  	-0.034778 
1908.400362  	-0.036472 
1909.832020  	-0.036701 
1911.263678  	-0.037281 
1912.695336  	-0.039528 
1914.126995  	-0.039346 
1915.558653  	-0.040264 
1916.990311  	-0.041178 
1918.421969  	-0.039660 
1919.853627  	-0.040640 
1921.285285  	-0.040669 
1922.716944  	-0.040372 
1924.148602  	-0.041964 
1925.580260  	-0.040280 
1927.011918  	-0.039855 
1928.443576  	-0.041893 
1929.875235  	-0.041926 
1931.306893  	-0.042814 
1932.738551  	-0.042482 
1934.170209  	-0.041679 
1935.601867  	-0.043524 
1937.033525  	-0.042327 
1938.465184  	-0.040836 
1939.896842  	-0.041021 
1941.328500  	-0.039857 
1942.760158  	-0.042086 
1944.191816  	-0.043291 
1945.623475  	-0.041786 
1947.055133  	-0.043190 
1948.486791  	-0.041884 
1949.918449  	-0.040415 
1951.350107  	-0.041794 
1952.781766  	-0.040915 
1954.213424  	-0.041929 
1955.645082  	-0.042309 
1957.076740  	-0.040925 
1958.508398  	-0.043978 
1959.940056  	-0.042918 
1961.371715  	-0.040496 
1962.803373  	-0.043005 
1964.235031  	-0.040786 
1965.666689  	-0.039627 
1967.098347  	-0.040808 
1968.530006  	-0.038677 
1969.961664  	-0.040860 
1971.393322  	-0.041196 
1972.824980  	-0.039620 
1974.256638  	-0.042168 
1975.688297  	-0.039284 
1977.119955  	-0.037671 
1978.551613  	-0.040111 
1979.983271  	-0.038578 
1981.414929  	-0.040576 
1982.846587  	-0.041983 
1984.278246  	-0.040790 
1985.709904  	-0.042555 
1987.141562  	-0.041317 
1988.573220  	-0.041041 
1990.004878  	-0.042915 
1991.436537  	-0.040478 
1992.868195  	-0.041245 
1994.299853  	-0.042317 
1995.731511  	-0.040421 
1997.163169  	-0.041559 
1998.594827  	-0.039815 
2000.026486  	-0.038784 
2001.458144  	-0.042014 
2002.889802  	-0.040058 
2004.321460  	-0.039230 
2005.753118  	-0.041543 
2007.184777  	-0.040569 
2008.616435  	-0.041664 
2010.048093  	-0.041452 
2011.479751  	-0.040666 
2012.911409  	-0.042866 
2014.343068  	-0.041512 
2015.774726  	-0.041335 
2017.206384  	-0.041291 
2018.638042  	-0.038673 
2020.069700  	-0.041811 
2021.501358  	-0.041862 
2022.933017  	-0.038976 
2024.364675  	-0.042581 
2025.796333  	-0.043204 
2027.227991  	-0.042477 
2028.659649  	-0.042534 
2030.091308  	-0.038683 
2031.522966  	-0.039406 
2032.954624  	-0.040194 
2034.386282  	-0.039112 
2035.817940  	-0.042322 
2037.249599  	-0.041318 
2038.681257  	-0.040535 
2040.112915  	-0.042904 
2041.544573  	-0.040651 
2042.976231  	-0.040480 
2044.407889  	-0.040920 
2045.839548  	-0.039012 
2047.271206  	-0.041083 
2048.702864  	-0.041861 
2050.134522  	-0.041298 
2051.566180  	-0.041782 
2052.997839  	-0.039791 
2054.429497  	-0.040184 
2055.861155  	-0.041151 
2057.292813  	-0.040112 
2058.724471  	-0.042324 
2060.156129  	-0.042690 
2061.587788  	-0.041137 
2063.019446  	-0.043183 
2064.451104  	-0.043941 
2065.882762  	-0.043963 
2067.314420  	-0.044380 
2068.746079  	-0.043197 
2070.177737  	-0.043701 
2071.609395  	-0.043044 
2073.041053  	-0.041843 
2074.472711  	-0.043654 
2075.904370  	-0.042872 
2077.336028  	-0.041792 
2078.767686  	-0.043515 
2080.199344  	-0.043318 
2081.631002  	-0.043282 
2083.062660  	-0.043858 
2084.494319  	-0.043546 
2085.925977  	-0.043977 
2087.357635  	-0.043036 
2088.789293  	-0.042835 
2090.220951  	-0.044466 
2091.652610  	-0.044086 
2093.084268  	-0.044631 
2094.515926  	-0.045390 
2095.947584  	-0.044186 
2097.379242  	-0.045243 
2098.810901  	-0.045503 
2100.242559  	-0.044309 
2101.674217  	-0.045156 
2103.105875  	-0.044809 
2104.537533  	-0.045190 
2105.969191  	-0.047023 
2107.400850  	-0.046190 
2108.832508  	-0.045903 
2110.264166  	-0.046374 
2111.695824  	-0.045659 
2113.127482  	-0.045801 
2114.559141  	-0.045768 
2115.990799  	-0.046158 
2117.422457  	-0.046538 
2118.854115  	-0.045227 
2120.285773  	-0.045824 
2121.717431  	-0.046495 
2123.149090  	-0.045167 
2124.580748  	-0.045664 
2126.012406  	-0.045736 
2127.444064  	-0.045343 
2128.875722  	-0.046744 
2130.307381  	-0.046196 
2131.739039  	-0.045147 
2133.170697  	-0.044966 
2134.602355  	-0.044337 
2136.034013  	-0.045966 
2137.465672  	-0.046116 
2138.897330  	-0.044363 
2140.328988  	-0.045490 
2141.760646  	-0.045330 
2143.192304  	-0.044116 
2144.623962  	-0.043772 
2146.055621  	-0.042514 
2147.487279  	-0.044113 
2148.918937  	-0.045482 
2150.350595  	-0.043751 
2151.782253  	-0.043743 
2153.213912  	-0.043128 
2154.645570  	-0.042670 
2156.077228  	-0.043795 
2157.508886  	-0.042980 
2158.940544  	-0.042777 
2160.372202  	-0.040507 
2161.803861  	-0.040085 
2163.235519  	-0.045506 
2164.667177  	-0.045327 
2166.098835  	-0.042847 
2167.530493  	-0.043990 
2168.962152  	-0.043416 
2170.393810  	-0.044421 
2171.825468  	-0.045055 
2173.257126  	-0.043260 
2174.688784  	-0.044728 
2176.120443  	-0.044116 
2177.552101  	-0.041771 
2178.983759  	-0.042753 
2180.415417  	-0.042050 
2181.847075  	-0.042457 
2183.278733  	-0.044136 
2184.710392  	-0.042117 
2186.142050  	-0.041793 
2187.573708  	-0.042237 
2189.005366  	-0.041261 
2190.437024  	-0.042295 
2191.868683  	-0.042607 
2193.300341  	-0.042196 
2194.731999  	-0.042331 
2196.163657  	-0.041301 
2197.595315  	-0.041649 
2199.026974  	-0.042554 
2200.458632  	-0.042185 
2201.890290  	-0.042380 
2203.321948  	-0.042966 
2204.753606  	-0.044296 
2206.185264  	-0.044502 
2207.616923  	-0.042691 
2209.048581  	-0.042580 
2210.480239  	-0.042641 
2211.911897  	-0.042523 
2213.343555  	-0.043584 
2214.775214  	-0.042741 
2216.206872  	-0.042274 
2217.638530  	-0.043083 
2219.070188  	-0.042528 
2220.501846  	-0.042581 
2221.933504  	-0.041336 
2223.365163  	-0.039403 
2224.796821  	-0.040297 
2226.228479  	-0.039309 
2227.660137  	-0.037905 
2229.091795  	-0.039778 
2230.523454  	-0.040160 
2231.955112  	-0.039808 
2233.386770  	-0.040368 
2234.818428  	-0.039811 
2236.250086  	-0.039964 
2237.681745  	-0.040539 
2239.113403  	-0.040678 
2240.545061  	-0.040895 
2241.976719  	-0.040591 
2243.408377  	-0.041317 
2244.840035  	-0.041579 
2246.271694  	-0.040625 
2247.703352  	-0.041857 
2249.135010  	-0.042360 
2250.566668  	-0.041109 
2251.998326  	-0.041747 
2253.429985  	-0.042335 
2254.861643  	-0.042670 
2256.293301  	-0.043713 
2257.724959  	-0.043699 
2259.156617  	-0.044342 
2260.588276  	-0.045303 
2262.019934  	-0.044825 
2263.451592  	-0.044380 
2264.883250  	-0.043968 
2266.314908  	-0.044578 
2267.746566  	-0.046447 
2269.178225  	-0.047166 
2270.609883  	-0.047067 
2272.041541  	-0.046247 
2273.473199  	-0.045714 
2274.904857  	-0.047336 
2276.336516  	-0.048102 
2277.768174  	-0.047544 
2279.199832  	-0.047885 
2280.631490  	-0.047706 
2282.063148  	-0.047174 
2283.494806  	-0.047040 
2284.926465  	-0.046943 
2286.358123  	-0.047236 
2287.789781  	-0.046853 
2289.221439  	-0.046581 
2290.653097  	-0.047383 
2292.084756  	-0.047182 
2293.516414  	-0.046652 
2294.948072  	-0.046692 
2296.379730  	-0.046227 
2297.811388  	-0.046326 
2299.243047  	-0.046547 
2300.674705  	-0.045820 
2302.106363  	-0.045338 
2303.538021  	-0.044827 
2304.969679  	-0.044337 
2306.401337  	-0.044278 
2307.832996  	-0.043559 
2309.264654  	-0.042806 
2310.696312  	-0.042500 
2312.127970  	-0.042041 
2313.559628  	-0.041958 
2314.991287  	-0.041905 
2316.422945  	-0.041409 
2317.854603  	-0.040489 
2319.286261  	-0.039052 
2320.717919  	-0.038188 
2322.149577  	-0.037830 
2323.581236  	-0.037389 
2325.012894  	-0.037310 
2326.444552  	-0.036830 
2327.876210  	-0.035967 
2329.307868  	-0.035378 
2330.739527  	-0.034792 
2332.171185  	-0.034819 
2333.602843  	-0.035102 
2335.034501  	-0.034995 
2336.466159  	-0.035205 
2337.897818  	-0.035041 
2339.329476  	-0.034631 
2340.761134  	-0.034565 
2342.192792  	-0.033953 
2343.624450  	-0.033896 
2345.056108  	-0.034783 
2346.487767  	-0.036423 
2347.919425  	-0.039149 
2349.351083  	-0.039880 
2350.782741  	-0.037422 
2352.214399  	-0.034789 
2353.646058  	-0.033594 
2355.077716  	-0.032395 
2356.509374  	-0.031083 
2357.941032  	-0.029913 
2359.372690  	-0.029626 
2360.804349  	-0.029716 
2362.236007  	-0.029444 
2363.667665  	-0.030283 
2365.099323  	-0.031343 
2366.530981  	-0.031911 
2367.962639  	-0.033068 
2369.394298  	-0.034031 
2370.825956  	-0.035130 
2372.257614  	-0.036620 
2373.689272  	-0.037742 
2375.120930  	-0.039225 
2376.552589  	-0.040561 
2377.984247  	-0.041377 
2379.415905  	-0.042678 
2380.847563  	-0.043961 
2382.279221  	-0.044960 
2383.710879  	-0.045916 
2385.142538  	-0.046478 
2386.574196  	-0.046892 
2388.005854  	-0.046963 
2389.437512  	-0.046606 
2390.869170  	-0.046530 
2392.300829  	-0.046550 
2393.732487  	-0.046604 
2395.164145  	-0.046767 
2396.595803  	-0.046739 
2398.027461  	-0.046732 
2399.459120  	-0.046496 
2400.890778  	-0.046280 
2402.322436  	-0.046470 
2403.754094  	-0.046122 
2405.185752  	-0.045863 
2406.617410  	-0.046285 
2408.049069  	-0.046215 
2409.480727  	-0.046077 
2410.912385  	-0.046025 
2412.344043  	-0.045600 
2413.775701  	-0.045638 
2415.207360  	-0.045765 
2416.639018  	-0.045860 
2418.070676  	-0.046519 
2419.502334  	-0.046806 
2420.933992  	-0.046677 
2422.365651  	-0.046502 
2423.797309  	-0.046251 
2425.228967  	-0.046567 
2426.660625  	-0.046788 
2428.092283  	-0.046743 
2429.523941  	-0.047108 
2430.955600  	-0.046996 
2432.387258  	-0.046867 
2433.818916  	-0.047328 
2435.250574  	-0.047326 
2436.682232  	-0.047294 
2438.113891  	-0.047501 
2439.545549  	-0.047471 
2440.977207  	-0.047376 
2442.408865  	-0.047004 
2443.840523  	-0.047014 
2445.272181  	-0.047344 
2446.703840  	-0.046936 
2448.135498  	-0.046942 
2449.567156  	-0.047473 
2450.998814  	-0.047462 
2452.430472  	-0.047598 
2453.862131  	-0.047753 
2455.293789  	-0.047779 
2456.725447  	-0.047929 
2458.157105  	-0.047524 
2459.588763  	-0.047225 
2461.020422  	-0.047288 
2462.452080  	-0.047118 
2463.883738  	-0.047449 
2465.315396  	-0.047697 
2466.747054  	-0.047306 
2468.178712  	-0.047258 
2469.610371  	-0.047173 
2471.042029  	-0.047000 
2472.473687  	-0.047316 
2473.905345  	-0.047476 
2475.337003  	-0.047209 
2476.768662  	-0.046843 
2478.200320  	-0.046886 
2479.631978  	-0.047252 
2481.063636  	-0.047361 
2482.495294  	-0.047685 
2483.926953  	-0.047769 
2485.358611  	-0.047346 
2486.790269  	-0.047815 
2488.221927  	-0.048216 
2489.653585  	-0.047890 
2491.085243  	-0.048232 
2492.516902  	-0.048397 
2493.948560  	-0.048215 
2495.380218  	-0.048592 
2496.811876  	-0.048681 
2498.243534  	-0.048839 
2499.675193  	-0.049350 
2501.106851  	-0.049393 
2502.538509  	-0.049437 
2503.970167  	-0.049504 
2505.401825  	-0.049434 
2506.833483  	-0.049406 
2508.265142  	-0.049227 
2509.696800  	-0.049453 
2511.128458  	-0.049602 
2512.560116  	-0.049261 
2513.991774  	-0.049577 
2515.423433  	-0.049774 
2516.855091  	-0.049349 
2518.286749  	-0.049344 
2519.718407  	-0.049493 
2521.150065  	-0.049906 
2522.581724  	-0.050200 
2524.013382  	-0.049620 
2525.445040  	-0.049438 
2526.876698  	-0.049748 
2528.308356  	-0.049995 
2529.740014  	-0.050277 
2531.171673  	-0.049787 
2532.603331  	-0.049398 
2534.034989  	-0.049627 
2535.466647  	-0.049486 
2536.898305  	-0.050003 
2538.329964  	-0.050653 
2539.761622  	-0.050218 
2541.193280  	-0.050209 
2542.624938  	-0.050282 
2544.056596  	-0.049831 
2545.488254  	-0.050011 
2546.919913  	-0.050434 
2548.351571  	-0.050774 
2549.783229  	-0.050870 
2551.214887  	-0.050587 
2552.646545  	-0.050805 
2554.078204  	-0.050794 
2555.509862  	-0.050368 
2556.941520  	-0.050457 
2558.373178  	-0.050218 
2559.804836  	-0.050126 
2561.236495  	-0.050769 
2562.668153  	-0.050918 
2564.099811  	-0.050984 
2565.531469  	-0.051005 
2566.963127  	-0.050484 
2568.394785  	-0.050357 
2569.826444  	-0.050425 
2571.258102  	-0.050606 
2572.689760  	-0.050987 
2574.121418  	-0.050493 
2575.553076  	-0.049968 
2576.984735  	-0.050205 
2578.416393  	-0.050321 
2579.848051  	-0.050482 
2581.279709  	-0.050553 
2582.711367  	-0.050255 
2584.143026  	-0.050293 
2585.574684  	-0.050460 
2587.006342  	-0.050286 
2588.438000  	-0.049983 
2589.869658  	-0.049991 
2591.301316  	-0.050352 
2592.732975  	-0.050404 
2594.164633  	-0.050427 
2595.596291  	-0.050752 
2597.027949  	-0.050771 
2598.459607  	-0.050883 
2599.891266  	-0.051238 
2601.322924  	-0.051333 
2602.754582  	-0.051351 
2604.186240  	-0.050992 
2605.617898  	-0.050488 
2607.049556  	-0.050502 
2608.481215  	-0.050550 
2609.912873  	-0.050665 
2611.344531  	-0.050926 
2612.776189  	-0.051013 
2614.207847  	-0.051250 
2615.639506  	-0.051371 
2617.071164  	-0.051279 
2618.502822  	-0.051186 
2619.934480  	-0.050738 
2621.366138  	-0.050742 
2622.797797  	-0.051377 
2624.229455  	-0.051576 
2625.661113  	-0.051705 
2627.092771  	-0.051858 
2628.524429  	-0.051729 
2629.956087  	-0.051748 
2631.387746  	-0.051628 
2632.819404  	-0.051639 
2634.251062  	-0.052029 
2635.682720  	-0.051971 
2637.114378  	-0.051829 
2638.546037  	-0.051768 
2639.977695  	-0.051436 
2641.409353  	-0.051557 
2642.841011  	-0.051770 
2644.272669  	-0.051565 
2645.704328  	-0.051586 
2647.135986  	-0.051661 
2648.567644  	-0.051685 
2649.999302  	-0.051758 
2651.430960  	-0.051582 
2652.862618  	-0.051544 
2654.294277  	-0.051640 
2655.725935  	-0.051557 
2657.157593  	-0.051534 
2658.589251  	-0.051372 
2660.020909  	-0.051114 
2661.452568  	-0.051013 
2662.884226  	-0.050905 
2664.315884  	-0.050975 
2665.747542  	-0.051047 
2667.179200  	-0.050886 
2668.610858  	-0.050865 
2670.042517  	-0.050807 
2671.474175  	-0.050718 
2672.905833  	-0.050809 
2674.337491  	-0.050793 
2675.769149  	-0.050919 
2677.200808  	-0.051133 
2678.632466  	-0.051068 
2680.064124  	-0.051078 
2681.495782  	-0.050952 
2682.927440  	-0.050689 
2684.359099  	-0.050898 
2685.790757  	-0.051097 
2687.222415  	-0.051009 
2688.654073  	-0.051010 
2690.085731  	-0.050969 
2691.517389  	-0.050934 
2692.949048  	-0.050969 
2694.380706  	-0.050993 
2695.812364  	-0.050983 
2697.244022  	-0.050781 
2698.675680  	-0.050688 
2700.107339  	-0.050814 
2701.538997  	-0.050818 
2702.970655  	-0.050784 
2704.402313  	-0.050631 
2705.833971  	-0.050462 
2707.265630  	-0.050521 
2708.697288  	-0.050375 
2710.128946  	-0.050206 
2711.560604  	-0.050233 
2712.992262  	-0.050065 
2714.423920  	-0.050070 
2715.855579  	-0.050262 
2717.287237  	-0.050302 
2718.718895  	-0.050424 
2720.150553  	-0.050347 
2721.582211  	-0.050320 
2723.013870  	-0.050734 
2724.445528  	-0.050723 
2725.877186  	-0.050376 
2727.308844  	-0.050290 
2728.740502  	-0.050180 
2730.172160  	-0.050207 
2731.603819  	-0.050325 
2733.035477  	-0.050295 
2734.467135  	-0.050368 
2735.898793  	-0.050377 
2737.330451  	-0.050411 
2738.762110  	-0.050604 
2740.193768  	-0.050577 
2741.625426  	-0.050511 
2743.057084  	-0.050519 
2744.488742  	-0.050597 
2745.920401  	-0.050839 
2747.352059  	-0.050701 
2748.783717  	-0.050469 
2750.215375  	-0.050657 
2751.647033  	-0.050646 
2753.078691  	-0.050577 
2754.510350  	-0.050731 
2755.942008  	-0.050683 
2757.373666  	-0.050654 
2758.805324  	-0.050585 
2760.236982  	-0.050264 
2761.668641  	-0.050108 
2763.100299  	-0.050020 
2764.531957  	-0.049893 
2765.963615  	-0.049855 
2767.395273  	-0.049724 
2768.826931  	-0.049549 
2770.258590  	-0.049299 
2771.690248  	-0.049010 
2773.121906  	-0.048967 
2774.553564  	-0.049001 
2775.985222  	-0.048962 
2777.416881  	-0.048820 
2778.848539  	-0.048615 
2780.280197  	-0.048748 
2781.711855  	-0.049001 
2783.143513  	-0.049003 
2784.575172  	-0.049068 
2786.006830  	-0.049269 
2787.438488  	-0.049438 
2788.870146  	-0.049459 
2790.301804  	-0.049414 
2791.733462  	-0.049500 
2793.165121  	-0.049394 
2794.596779  	-0.049290 
2796.028437  	-0.049570 
2797.460095  	-0.049608 
2798.891753  	-0.049500 
2800.323412  	-0.049658 
2801.755070  	-0.049613 
2803.186728  	-0.049495 
2804.618386  	-0.049412 
2806.050044  	-0.049264 
2807.481703  	-0.049394 
2808.913361  	-0.049356 
2810.345019  	-0.049078 
2811.776677  	-0.049121 
2813.208335  	-0.049085 
2814.639993  	-0.049056 
2816.071652  	-0.049320 
2817.503310  	-0.049314 
2818.934968  	-0.049154 
2820.366626  	-0.049049 
2821.798284  	-0.048949 
2823.229943  	-0.049114 
2824.661601  	-0.049280 
2826.093259  	-0.049309 
2827.524917  	-0.049263 
2828.956575  	-0.048941 
2830.388233  	-0.048789 
2831.819892  	-0.048951 
2833.251550  	-0.049070 
2834.683208  	-0.049182 
2836.114866  	-0.048956 
2837.546524  	-0.048463 
2838.978183  	-0.048290 
2840.409841  	-0.048201 
2841.841499  	-0.047992 
2843.273157  	-0.047708 
2844.704815  	-0.047267 
2846.136474  	-0.046723 
2847.568132  	-0.045938 
2848.999790  	-0.045284 
2850.431448  	-0.045043 
2851.863106  	-0.044550 
2853.294764  	-0.044031 
2854.726423  	-0.043881 
2856.158081  	-0.043521 
2857.589739  	-0.043037 
2859.021397  	-0.042546 
2860.453055  	-0.041629 
2861.884714  	-0.040257 
2863.316372  	-0.038450 
2864.748030  	-0.036456 
2866.179688  	-0.034317 
2867.611346  	-0.031682 
2869.043005  	-0.029077 
2870.474663  	-0.027020 
2871.906321  	-0.025504 
2873.337979  	-0.024878 
2874.769637  	-0.025097 
2876.201295  	-0.025840 
2877.632954  	-0.027081 
2879.064612  	-0.028552 
2880.496270  	-0.030160 
2881.927928  	-0.031772 
2883.359586  	-0.032896 
2884.791245  	-0.033550 
2886.222903  	-0.033793 
2887.654561  	-0.033581 
2889.086219  	-0.033234 
2890.517877  	-0.032931 
2891.949535  	-0.032894 
2893.381194  	-0.033174 
2894.812852  	-0.033425 
2896.244510  	-0.033796 
2897.676168  	-0.034344 
2899.107826  	-0.034598 
2900.539485  	-0.034551 
2901.971143  	-0.034399 
2903.402801  	-0.034038 
2904.834459  	-0.033354 
2906.266117  	-0.032430 
2907.697776  	-0.031507 
2909.129434  	-0.030631 
2910.561092  	-0.029826 
2911.992750  	-0.029318 
2913.424408  	-0.029096 
2914.856066  	-0.028979 
2916.287725  	-0.028870 
2917.719383  	-0.028656 
2919.151041  	-0.028258 
2920.582699  	-0.027678 
2922.014357  	-0.026987 
2923.446016  	-0.026062 
2924.877674  	-0.024667 
2926.309332  	-0.022949 
2927.740990  	-0.021198 
2929.172648  	-0.019599 
2930.604306  	-0.018179 
2932.035965  	-0.016911 
2933.467623  	-0.016195 
2934.899281  	-0.016085 
2936.330939  	-0.016092 
2937.762597  	-0.016382 
2939.194256  	-0.017045 
2940.625914  	-0.017588 
2942.057572  	-0.018059 
2943.489230  	-0.018576 
2944.920888  	-0.018872 
2946.352547  	-0.018978 
2947.784205  	-0.018930 
2949.215863  	-0.018499 
2950.647521  	-0.017446 
2952.079179  	-0.015762 
2953.510837  	-0.013587 
2954.942496  	-0.010633 
2956.374154  	-0.006537 
2957.805812  	-0.001341 
2959.237470  	0.004619 
2960.669128  	0.010856 
2962.100787  	0.017342 
2963.532445  	0.023759 
2964.964103  	0.029050 
2966.395761  	0.032688 
2967.827419  	0.034441 
2969.259078  	0.034292 
2970.690736  	0.032657 
2972.122394  	0.029723 
2973.554052  	0.025695 
2974.985710  	0.020895 
2976.417368  	0.015626 
2977.849027  	0.010409 
2979.280685  	0.005402 
2980.712343  	0.000404 
2982.144001  	-0.004391 
2983.575659  	-0.008865 
2985.007318  	-0.013011 
2986.438976  	-0.016716 
2987.870634  	-0.020299 
2989.302292  	-0.023662 
2990.733950  	-0.026542 
2992.165608  	-0.029312 
2993.597267  	-0.031628 
2995.028925  	-0.033367 
2996.460583  	-0.035272 
2997.892241  	-0.037038 
2999.323899  	-0.038519 
3000.755558  	-0.040048 
3002.187216  	-0.041178 
3003.618874  	-0.042102 
3005.050532  	-0.043027 
3006.482190  	-0.043631 
3007.913849  	-0.044338 
3009.345507  	-0.045025 
3010.777165  	-0.045446 
3012.208823  	-0.046133 
3013.640481  	-0.046825 
3015.072139  	-0.047187 
3016.503798  	-0.047279 
3017.935456  	-0.047135 
3019.367114  	-0.047362 
3020.798772  	-0.047797 
3022.230430  	-0.047808 
3023.662089  	-0.047644 
3025.093747  	-0.047321 
3026.525405  	-0.046950 
3027.957063  	-0.046614 
3029.388721  	-0.045778 
3030.820380  	-0.044679 
3032.252038  	-0.043410 
3033.683696  	-0.041708 
3035.115354  	-0.040247 
3036.547012  	-0.039076 
3037.978670  	-0.037842 
3039.410329  	-0.036937 
3040.841987  	-0.036451 
3042.273645  	-0.036415 
3043.705303  	-0.036863 
3045.136961  	-0.037474 
3046.568620  	-0.038153 
3048.000278  	-0.038705 
3049.431936  	-0.039167 
3050.863594  	-0.039747 
3052.295252  	-0.039831 
3053.726910  	-0.039265 
3055.158569  	-0.038611 
3056.590227  	-0.038122 
3058.021885  	-0.037993 
3059.453543  	-0.038015 
3060.885201  	-0.038080 
3062.316860  	-0.038415 
3063.748518  	-0.038652 
3065.180176  	-0.038939 
3066.611834  	-0.039747 
3068.043492  	-0.040618 
3069.475151  	-0.041394 
3070.906809  	-0.042039 
3072.338467  	-0.042326 
3073.770125  	-0.042730 
3075.201783  	-0.043303 
3076.633441  	-0.043695 
3078.065100  	-0.044178 
3079.496758  	-0.044777 
3080.928416  	-0.045181 
3082.360074  	-0.045458 
3083.791732  	-0.045900 
3085.223391  	-0.046431 
3086.655049  	-0.046767 
3088.086707  	-0.047190 
3089.518365  	-0.047632 
3090.950023  	-0.047692 
3092.381682  	-0.047931 
3093.813340  	-0.048451 
3095.244998  	-0.048700 
3096.676656  	-0.048775 
3098.108314  	-0.048609 
3099.539972  	-0.048441 
3100.971631  	-0.048702 
3102.403289  	-0.048817 
3103.834947  	-0.048745 
3105.266605  	-0.048940 
3106.698263  	-0.049108 
3108.129922  	-0.049020 
3109.561580  	-0.048718 
3110.993238  	-0.048655 
3112.424896  	-0.048998 
3113.856554  	-0.049072 
3115.288212  	-0.049074 
3116.719871  	-0.049367 
3118.151529  	-0.049596 
3119.583187  	-0.049871 
3121.014845  	-0.049965 
3122.446503  	-0.049910 
3123.878162  	-0.050156 
3125.309820  	-0.050076 
3126.741478  	-0.050031 
3128.173136  	-0.050637 
3129.604794  	-0.050810 
3131.036453  	-0.050758 
3132.468111  	-0.051247 
3133.899769  	-0.051730 
3135.331427  	-0.052043 
3136.763085  	-0.052036 
3138.194743  	-0.051899 
3139.626402  	-0.052109 
3141.058060  	-0.052081 
3142.489718  	-0.052059 
3143.921376  	-0.052427 
3145.353034  	-0.052441 
3146.784693  	-0.052446 
3148.216351  	-0.052590 
3149.648009  	-0.052460 
3151.079667  	-0.052576 
3152.511325  	-0.052634 
3153.942983  	-0.052421 
3155.374642  	-0.052531 
3156.806300  	-0.052669 
3158.237958  	-0.052877 
3159.669616  	-0.053155 
3161.101274  	-0.053007 
3162.532933  	-0.052944 
3163.964591  	-0.052900 
3165.396249  	-0.052596 
3166.827907  	-0.052696 
3168.259565  	-0.052875 
3169.691224  	-0.052798 
3171.122882  	-0.052838 
3172.554540  	-0.052797 
3173.986198  	-0.052875 
3175.417856  	-0.053218 
3176.849514  	-0.053350 
3178.281173  	-0.053287 
3179.712831  	-0.053137 
3181.144489  	-0.053056 
3182.576147  	-0.053053 
3184.007805  	-0.052876 
3185.439464  	-0.052858 
3186.871122  	-0.052851 
3188.302780  	-0.052546 
3189.734438  	-0.052580 
3191.166096  	-0.052801 
3192.597755  	-0.052821 
3194.029413  	-0.053003 
3195.461071  	-0.053168 
3196.892729  	-0.053333 
3198.324387  	-0.053585 
3199.756045  	-0.053338 
3201.187704  	-0.052957 
3202.619362  	-0.053074 
3204.051020  	-0.053274 
3205.482678  	-0.053226 
3206.914336  	-0.053107 
3208.345995  	-0.053145 
3209.777653  	-0.053330 
3211.209311  	-0.053537 
3212.640969  	-0.053735 
3214.072627  	-0.053798 
3215.504285  	-0.053778 
3216.935944  	-0.053720 
3218.367602  	-0.053477 
3219.799260  	-0.053310 
3221.230918  	-0.053289 
3222.662576  	-0.053308 
3224.094235  	-0.053562 
3225.525893  	-0.053729 
3226.957551  	-0.053727 
3228.389209  	-0.053898 
3229.820867  	-0.053954 
3231.252526  	-0.053993 
3232.684184  	-0.054162 
3234.115842  	-0.054018 
3235.547500  	-0.053848 
3236.979158  	-0.053890 
3238.410816  	-0.053884 
3239.842475  	-0.053942 
3241.274133  	-0.053995 
3242.705791  	-0.054011 
3244.137449  	-0.054030 
3245.569107  	-0.053858 
3247.000766  	-0.053831 
3248.432424  	-0.054040 
3249.864082  	-0.054123 
3251.295740  	-0.054156 
3252.727398  	-0.054092 
3254.159057  	-0.054069 
3255.590715  	-0.054274 
3257.022373  	-0.054168 
3258.454031  	-0.053881 
3259.885689  	-0.053968 
3261.317347  	-0.054119 
3262.749006  	-0.054027 
3264.180664  	-0.053721 
3265.612322  	-0.053526 
3267.043980  	-0.053873 
3268.475638  	-0.054359 
3269.907297  	-0.054376 
3271.338955  	-0.054128 
3272.770613  	-0.054167 
3274.202271  	-0.054387 
3275.633929  	-0.054264 
3277.065587  	-0.054119 
3278.497246  	-0.054201 
3279.928904  	-0.054100 
3281.360562  	-0.054158 
3282.792220  	-0.054430 
3284.223878  	-0.054289 
3285.655537  	-0.054006 
3287.087195  	-0.053900 
3288.518853  	-0.053980 
3289.950511  	-0.054264 
3291.382169  	-0.054264 
3292.813828  	-0.054101 
3294.245486  	-0.054122 
3295.677144  	-0.053978 
3297.108802  	-0.053938 
3298.540460  	-0.054193 
3299.972118  	-0.054253 
3301.403777  	-0.054155 
3302.835435  	-0.054022 
3304.267093  	-0.053948 
3305.698751  	-0.054066 
3307.130409  	-0.054143 
3308.562068  	-0.054292 
3309.993726  	-0.054567 
3311.425384  	-0.054672 
3312.857042  	-0.054721 
3314.288700  	-0.054652 
3315.720359  	-0.054503 
3317.152017  	-0.054636 
3318.583675  	-0.054763 
3320.015333  	-0.054694 
3321.446991  	-0.054646 
3322.878649  	-0.054584 
3324.310308  	-0.054621 
3325.741966  	-0.054756 
3327.173624  	-0.054676 
3328.605282  	-0.054515 
3330.036940  	-0.054661 
3331.468599  	-0.054877 
3332.900257  	-0.054642 
3334.331915  	-0.054437 
3335.763573  	-0.054763 
3337.195231  	-0.054924 
3338.626889  	-0.054833 
3340.058548  	-0.054915 
3341.490206  	-0.054919 
3342.921864  	-0.054959 
3344.353522  	-0.054950 
3345.785180  	-0.054714 
3347.216839  	-0.054887 
3348.648497  	-0.055090 
3350.080155  	-0.054724 
3351.511813  	-0.054554 
3352.943471  	-0.054875 
3354.375130  	-0.055289 
3355.806788  	-0.055345 
3357.238446  	-0.054890 
3358.670104  	-0.054680 
3360.101762  	-0.054786 
3361.533420  	-0.054701 
3362.965079  	-0.054700 
3364.396737  	-0.054908 
3365.828395  	-0.055284 
3367.260053  	-0.055507 
3368.691711  	-0.055167 
3370.123370  	-0.055000 
3371.555028  	-0.055199 
3372.986686  	-0.055254 
3374.418344  	-0.055349 
3375.850002  	-0.055194 
3377.281660  	-0.054947 
3378.713319  	-0.055239 
3380.144977  	-0.055367 
3381.576635  	-0.055119 
3383.008293  	-0.054912 
3384.439951  	-0.054765 
3385.871610  	-0.055079 
3387.303268  	-0.055324 
3388.734926  	-0.055082 
3390.166584  	-0.055128 
3391.598242  	-0.055082 
3393.029901  	-0.054812 
3394.461559  	-0.054957 
3395.893217  	-0.054942 
3397.324875  	-0.054841 
3398.756533  	-0.055018 
3400.188191  	-0.054988 
3401.619850  	-0.055056 
3403.051508  	-0.055159 
3404.483166  	-0.054844 
3405.914824  	-0.054652 
3407.346482  	-0.054717 
3408.778141  	-0.054865 
3410.209799  	-0.055080 
3411.641457  	-0.055133 
3413.073115  	-0.055154 
3414.504773  	-0.055143 
3415.936432  	-0.055210 
3417.368090  	-0.055574 
3418.799748  	-0.055432 
3420.231406  	-0.054766 
3421.663064  	-0.054667 
3423.094722  	-0.054893 
3424.526381  	-0.054830 
3425.958039  	-0.054836 
3427.389697  	-0.055118 
3428.821355  	-0.055171 
3430.253013  	-0.054894 
3431.684672  	-0.055019 
3433.116330  	-0.055309 
3434.547988  	-0.055145 
3435.979646  	-0.055126 
3437.411304  	-0.055330 
3438.842962  	-0.055385 
3440.274621  	-0.055257 
3441.706279  	-0.054705 
3443.137937  	-0.054469 
3444.569595  	-0.054841 
3446.001253  	-0.054920 
3447.432912  	-0.055246 
3448.864570  	-0.055671 
3450.296228  	-0.055298 
3451.727886  	-0.055070 
3453.159544  	-0.054955 
3454.591203  	-0.054636 
3456.022861  	-0.054957 
3457.454519  	-0.055080 
3458.886177  	-0.054591 
3460.317835  	-0.054687 
3461.749493  	-0.054926 
3463.181152  	-0.054725 
3464.612810  	-0.054667 
3466.044468  	-0.054850 
3467.476126  	-0.055029 
3468.907784  	-0.054968 
3470.339443  	-0.054844 
3471.771101  	-0.054806 
3473.202759  	-0.054500 
3474.634417  	-0.054284 
3476.066075  	-0.054566 
3477.497734  	-0.054856 
3478.929392  	-0.054713 
3480.361050  	-0.054214 
3481.792708  	-0.054150 
3483.224366  	-0.054643 
3484.656024  	-0.054756 
3486.087683  	-0.054786 
3487.519341  	-0.055042 
3488.950999  	-0.054946 
3490.382657  	-0.054754 
3491.814315  	-0.054750 
3493.245974  	-0.054832 
3494.677632  	-0.054970 
3496.109290  	-0.054901 
3497.540948  	-0.054765 
3498.972606  	-0.054479 
3500.404264  	-0.053879 
3501.835923  	-0.053672 
3503.267581  	-0.053794 
3504.699239  	-0.053713 
3506.130897  	-0.053749 
3507.562555  	-0.053766 
3508.994214  	-0.053630 
3510.425872  	-0.053412 
3511.857530  	-0.053131 
3513.289188  	-0.053370 
3514.720846  	-0.053812 
3516.152505  	-0.053613 
3517.584163  	-0.053252 
3519.015821  	-0.053075 
3520.447479  	-0.052756 
3521.879137  	-0.052397 
3523.310795  	-0.052385 
3524.742454  	-0.052574 
3526.174112  	-0.052195 
3527.605770  	-0.051745 
3529.037428  	-0.052011 
3530.469086  	-0.052275 
3531.900745  	-0.052471 
3533.332403  	-0.052512 
3534.764061  	-0.052040 
3536.195719  	-0.052352 
3537.627377  	-0.052997 
3539.059035  	-0.052433 
3540.490694  	-0.052284 
3541.922352  	-0.052824 
3543.354010  	-0.052625 
3544.785668  	-0.052441 
3546.217326  	-0.052839 
3547.648985  	-0.053255 
3549.080643  	-0.053437 
3550.512301  	-0.053160 
3551.943959  	-0.052995 
3553.375617  	-0.053299 
3554.807276  	-0.053467 
3556.238934  	-0.053382 
3557.670592  	-0.053035 
3559.102250  	-0.052823 
3560.533908  	-0.053177 
3561.965566  	-0.053558 
3563.397225  	-0.053408 
3564.828883  	-0.052423 
3566.260541  	-0.051663 
3567.692199  	-0.053170 
3569.123857  	-0.054417 
3570.555516  	-0.053904 
3571.987174  	-0.053611 
3573.418832  	-0.053258 
3574.850490  	-0.052910 
3576.282148  	-0.053361 
3577.713807  	-0.053786 
3579.145465  	-0.053932 
3580.577123  	-0.053927 
3582.008781  	-0.053573 
3583.440439  	-0.053377 
3584.872097  	-0.052825 
3586.303756  	-0.051812 
3587.735414  	-0.052530 
3589.167072  	-0.054516 
3590.598730  	-0.054571 
3592.030388  	-0.053891 
3593.462047  	-0.053502 
3594.893705  	-0.053277 
3596.325363  	-0.053515 
3597.757021  	-0.053972 
3599.188679  	-0.053896 
3600.620337  	-0.054017 
3602.051996  	-0.054728 
3603.483654  	-0.054784 
3604.915312  	-0.054473 
3606.346970  	-0.054228 
3607.778628  	-0.053773 
3609.210287  	-0.054531 
3610.641945  	-0.055412 
3612.073603  	-0.054375 
3613.505261  	-0.054023 
3614.936919  	-0.055309 
3616.368578  	-0.054981 
3617.800236  	-0.053522 
3619.231894  	-0.053322 
3620.663552  	-0.054798 
3622.095210  	-0.055293 
3623.526868  	-0.054622 
3624.958527  	-0.054293 
3626.390185  	-0.053551 
3627.821843  	-0.051889 
3629.253501  	-0.052803 
3630.685159  	-0.055335 
3632.116818  	-0.054361 
3633.548476  	-0.053961 
3634.980134  	-0.054876 
3636.411792  	-0.054950 
3637.843450  	-0.054747 
3639.275109  	-0.054854 
3640.706767  	-0.054605 
3642.138425  	-0.054351 
3643.570083  	-0.054416 
3645.001741  	-0.053926 
3646.433399  	-0.052828 
3647.865058  	-0.052168 
3649.296716  	-0.051959 
3650.728374  	-0.053161 
3652.160032  	-0.055809 
3653.591690  	-0.055001 
3655.023349  	-0.052772 
3656.455007  	-0.053041 
3657.886665  	-0.054522 
3659.318323  	-0.053998 
3660.749981  	-0.053631 
3662.181639  	-0.053610 
3663.613298  	-0.053485 
3665.044956  	-0.053517 
3666.476614  	-0.053163 
3667.908272  	-0.052282 
3669.339930  	-0.051414 
3670.771589  	-0.052537 
3672.203247  	-0.053561 
3673.634905  	-0.051623 
3675.066563  	-0.050749 
3676.498221  	-0.055033 
3677.929880  	-0.054736 
3679.361538  	-0.053476 
3680.793196  	-0.054134 
3682.224854  	-0.053843 
3683.656512  	-0.053474 
3685.088170  	-0.053641 
3686.519829  	-0.052705 
3687.951487  	-0.052349 
3689.383145  	-0.053674 
3690.814803  	-0.054002 
3692.246461  	-0.054689 
3693.678120  	-0.055366 
3695.109778  	-0.054680 
3696.541436  	-0.054254 
3697.973094  	-0.054567 
3699.404752  	-0.054170 
3700.836411  	-0.053640 
3702.268069  	-0.054582 
3703.699727  	-0.055523 
3705.131385  	-0.055010 
3706.563043  	-0.054236 
3707.994701  	-0.053748 
3709.426360  	-0.053603 
3710.858018  	-0.053781 
3712.289676  	-0.054074 
3713.721334  	-0.055320 
3715.152992  	-0.056163 
3716.584651  	-0.055580 
3718.016309  	-0.055259 
3719.447967  	-0.055322 
3720.879625  	-0.054230 
3722.311283  	-0.053638 
3723.742941  	-0.054368 
3725.174600  	-0.054148 
3726.606258  	-0.054011 
3728.037916  	-0.055025 
3729.469574  	-0.054758 
3730.901232  	-0.053869 
3732.332891  	-0.054141 
3733.764549  	-0.053658 
3735.196207  	-0.052627 
3736.627865  	-0.055496 
3738.059523  	-0.056768 
3739.491182  	-0.055335 
3740.922840  	-0.055408 
3742.354498  	-0.054465 
3743.786156  	-0.052222 
3745.217814  	-0.055974 
3746.649472  	-0.057464 
3748.081131  	-0.054389 
3749.512789  	-0.053937 
3750.944447  	-0.055591 
3752.376105  	-0.056019 
3753.807763  	-0.056698 
3755.239422  	-0.055790 
3756.671080  	-0.055244 
3758.102738  	-0.055940 
3759.534396  	-0.055740 
3760.966054  	-0.056463 
3762.397712  	-0.057206 
3763.829371  	-0.055852 
3765.261029  	-0.055242 
3766.692687  	-0.055948 
3768.124345  	-0.055484 
3769.556003  	-0.055373 
3770.987662  	-0.056293 
3772.419320  	-0.056554 
3773.850978  	-0.056326 
3775.282636  	-0.056110 
3776.714294  	-0.056114 
3778.145953  	-0.055855 
3779.577611  	-0.055557 
3781.009269  	-0.055965 
3782.440927  	-0.055624 
3783.872585  	-0.054931 
3785.304243  	-0.055403 
3786.735902  	-0.055969 
3788.167560  	-0.055814 
3789.599218  	-0.055466 
3791.030876  	-0.055199 
3792.462534  	-0.055656 
3793.894193  	-0.056033 
3795.325851  	-0.055391 
3796.757509  	-0.055072 
3798.189167  	-0.055212 
3799.620825  	-0.054134 
3801.052484  	-0.053409 
3802.484142  	-0.056095 
3803.915800  	-0.056780 
3805.347458  	-0.054629 
3806.779116  	-0.054206 
3808.210774  	-0.056660 
3809.642433  	-0.056411 
3811.074091  	-0.055396 
3812.505749  	-0.055504 
3813.937407  	-0.054898 
3815.369065  	-0.054199 
3816.800724  	-0.055881 
3818.232382  	-0.055848 
3819.664040  	-0.053787 
3821.095698  	-0.054110 
3822.527356  	-0.057470 
3823.959014  	-0.056634 
3825.390673  	-0.055060 
3826.822331  	-0.055461 
3828.253989  	-0.055822 
3829.685647  	-0.054865 
3831.117305  	-0.054529 
3832.548964  	-0.054920 
3833.980622  	-0.055009 
3835.412280  	-0.054944 
3836.843938  	-0.054531 
3838.275596  	-0.054228 
3839.707255  	-0.055040 
3841.138913  	-0.055661 
3842.570571  	-0.055494 
3844.002229  	-0.055606 
3845.433887  	-0.055998 
3846.865545  	-0.055477 
3848.297204  	-0.054764 
3849.728862  	-0.054837 
3851.160520  	-0.054187 
3852.592178  	-0.052513 
3854.023836  	-0.054306 
3855.455495  	-0.056915 
3856.887153  	-0.056408 
3858.318811  	-0.056166 
3859.750469  	-0.055733 
3861.182127  	-0.055089 
3862.613786  	-0.054589 
3864.045444  	-0.054020 
3865.477102  	-0.055328 
3866.908760  	-0.056384 
3868.340418  	-0.054456 
3869.772076  	-0.053924 
3871.203735  	-0.056637 
3872.635393  	-0.055624 
3874.067051  	-0.054591 
3875.498709  	-0.056242 
3876.930367  	-0.056144 
3878.362026  	-0.054585 
3879.793684  	-0.054206 
3881.225342  	-0.055647 
3882.657000  	-0.055822 
3884.088658  	-0.053876 
3885.520316  	-0.053119 
3886.951975  	-0.055674 
3888.383633  	-0.055805 
3889.815291  	-0.054401 
3891.246949  	-0.054666 
3892.678607  	-0.055709 
3894.110266  	-0.055674 
3895.541924  	-0.055348 
3896.973582  	-0.054601 
3898.405240  	-0.054198 
3899.836898  	-0.054822 
3901.268557  	-0.054852 
3902.700215  	-0.054263 
3904.131873  	-0.054654 
3905.563531  	-0.055561 
3906.995189  	-0.055855 
3908.426847  	-0.055882 
3909.858506  	-0.055790 
3911.290164  	-0.055756 
3912.721822  	-0.056158 
3914.153480  	-0.056195 
3915.585138  	-0.055320 
3917.016797  	-0.054710 
3918.448455  	-0.054938 
3919.880113  	-0.055113 
3921.311771  	-0.055225 
3922.743429  	-0.054931 
3924.175088  	-0.054556 
3925.606746  	-0.055188 
3927.038404  	-0.055528 
3928.470062  	-0.055134 
3929.901720  	-0.055203 
3931.333378  	-0.055109 
3932.765037  	-0.054936 
3934.196695  	-0.055612 
3935.628353  	-0.055727 
3937.060011  	-0.055375 
3938.491669  	-0.055544 
3939.923328  	-0.055381 
3941.354986  	-0.054756 
3942.786644  	-0.054662 
3944.218302  	-0.055134 
3945.649960  	-0.055370 
3947.081618  	-0.055194 
3948.513277  	-0.055319 
3949.944935  	-0.055875 
3951.376593  	-0.055839 
3952.808251  	-0.055425 
3954.239909  	-0.055353 
3955.671568  	-0.055552 
3957.103226  	-0.055878 
3958.534884  	-0.056017 
3959.966542  	-0.055818 
3961.398200  	-0.055582 
3962.829859  	-0.055517 
3964.261517  	-0.055653 
3965.693175  	-0.055613 
3967.124833  	-0.055402 
3968.556491  	-0.055414 
3969.988149  	-0.055265 
3971.419808  	-0.055184 
3972.851466  	-0.055560 
3974.283124  	-0.055378 
3975.714782  	-0.054863 
3977.146440  	-0.054939 
3978.578099  	-0.054999 
3980.009757  	-0.055121 
3981.441415  	-0.055427 
3982.873073  	-0.055146 
3984.304731  	-0.054833 
3985.736389  	-0.055081 
3987.168048  	-0.055296 
3988.599706  	-0.055220 
3990.031364  	-0.055024 
3991.463022  	-0.055020 
3992.894680  	-0.055236 
3994.326339  	-0.055369 
3995.757997  	-0.055535 
3997.189655  	-0.055583 
3998.621313  	-0.055332 
4000.052971  	-0.055170 