##TITLE=No Description
##DATA TYPE=INFRARED SPECTRUM
##XUNITS=1/CM
##YUNITS=%T
399.432634  	87.972616 
400.864292  	86.971741 
402.295950  	85.735068 
403.727608  	81.267648 
405.159267  	80.155489 
406.590925  	84.559386 
408.022583  	85.114930 
409.454241  	81.842862 
410.885899  	80.299994 
412.317558  	82.648885 
413.749216  	87.846281 
415.180874  	87.531423 
416.612532  	82.623475 
418.044190  	81.845788 
419.475848  	89.166410 
420.907507  	93.381920 
422.339165  	92.012005 
423.770823  	87.069256 
425.202481  	85.939896 
426.634139  	89.227623 
428.065798  	90.914302 
429.497456  	90.686898 
430.929114  	90.601484 
432.360772  	90.465135 
433.792430  	89.973412 
435.224089  	90.430446 
436.655747  	93.125624 
438.087405  	93.333995 
439.519063  	90.473242 
440.950721  	90.482198 
442.382379  	92.441345 
443.814038  	91.030111 
445.245696  	90.455041 
446.677354  	92.677334 
448.109012  	93.432053 
449.540670  	92.636908 
450.972329  	91.963113 
452.403987  	90.968260 
453.835645  	90.844894 
455.267303  	91.376784 
456.698961  	91.886283 
458.130619  	92.105742 
459.562278  	90.569597 
460.993936  	88.890570 
462.425594  	88.586932 
463.857252  	88.427569 
465.288910  	88.129917 
466.720569  	87.995394 
468.152227  	86.985419 
469.583885  	86.765539 
471.015543  	87.972321 
472.447201  	87.983500 
473.878860  	87.235010 
475.310518  	87.658423 
476.742176  	88.363257 
478.173834  	88.867418 
479.605492  	88.363063 
481.037150  	86.708228 
482.468809  	86.127769 
483.900467  	86.661107 
485.332125  	85.450925 
486.763783  	83.211149 
488.195441  	82.772798 
489.627100  	83.854690 
491.058758  	84.139021 
492.490416  	83.483419 
493.922074  	83.498483 
495.353732  	84.107252 
496.785391  	84.879281 
498.217049  	85.336621 
499.648707  	84.775114 
501.080365  	84.567226 
502.512023  	85.433519 
503.943681  	85.294702 
505.375340  	84.667811 
506.806998  	84.983776 
508.238656  	85.404145 
509.670314  	85.558974 
511.101972  	85.618727 
512.533631  	85.194181 
513.965289  	85.051921 
515.396947  	85.413798 
516.828605  	85.213324 
518.260263  	84.498183 
519.691921  	83.910729 
521.123580  	83.239661 
522.555238  	82.367850 
523.986896  	81.284827 
525.418554  	80.034639 
526.850212  	79.082676 
528.281871  	78.492295 
529.713529  	77.822359 
531.145187  	76.716543 
532.576845  	75.146475 
534.008503  	73.551020 
535.440162  	72.244993 
536.871820  	70.977424 
538.303478  	69.366581 
539.735136  	67.468014 
541.166794  	65.437559 
542.598452  	63.166303 
544.030111  	60.800067 
545.461769  	58.826469 
546.893427  	57.215377 
548.325085  	55.400591 
549.756743  	53.444816 
551.188402  	52.073218 
552.620060  	51.306655 
554.051718  	50.806851 
555.483376  	51.188256 
556.915034  	52.874945 
558.346692  	55.302588 
559.778351  	57.738006 
561.210009  	59.779612 
562.641667  	61.956108 
564.073325  	65.179131 
565.504983  	69.879695 
566.936642  	75.885853 
568.368300  	81.862541 
569.799958  	86.231318 
571.231616  	88.367324 
572.663274  	88.266657 
574.094933  	87.210721 
575.526591  	86.493270 
576.958249  	86.357380 
578.389907  	86.819691 
579.821565  	87.780618 
581.253223  	88.686642 
582.684882  	89.217945 
584.116540  	89.665039 
585.548198  	90.178941 
586.979856  	90.693607 
588.411514  	91.174651 
589.843173  	91.607694 
591.274831  	92.066463 
592.706489  	92.465573 
594.138147  	92.598150 
595.569805  	92.850255 
597.001464  	93.471413 
598.433122  	93.786916 
599.864780  	93.642853 
601.296438  	93.731594 
602.728096  	94.051990 
604.159754  	94.249121 
605.591413  	94.383168 
607.023071  	94.431054 
608.454729  	94.368726 
609.886387  	94.294882 
611.318045  	94.133714 
612.749704  	93.950928 
614.181362  	93.966945 
615.613020  	94.063478 
617.044678  	94.196368 
618.476336  	94.418551 
619.907994  	94.334148 
621.339653  	93.814707 
622.771311  	93.335180 
624.202969  	93.016312 
625.634627  	92.760709 
627.066285  	92.588790 
628.497944  	92.264276 
629.929602  	91.720400 
631.361260  	91.258971 
632.792918  	91.145486 
634.224576  	91.387158 
635.656235  	91.642094 
637.087893  	91.819343 
638.519551  	92.154387 
639.951209  	92.481448 
641.382867  	92.629812 
642.814525  	92.716093 
644.246184  	92.696368 
645.677842  	92.687335 
647.109500  	92.735478 
648.541158  	92.714895 
649.972816  	92.863181 
651.404475  	92.897641 
652.836133  	92.436148 
654.267791  	92.242305 
655.699449  	92.532426 
657.131107  	92.634626 
658.562766  	92.507184 
659.994424  	92.311035 
661.426082  	92.138012 
662.857740  	92.112299 
664.289398  	92.023272 
665.721056  	91.678191 
667.152715  	90.761783 
668.584373  	89.849766 
670.016031  	90.612394 
671.447689  	90.977657 
672.879347  	90.537790 
674.311006  	89.982099 
675.742664  	89.688453 
677.174322  	89.516298 
678.605980  	89.313745 
680.037638  	88.872189 
681.469296  	88.421751 
682.900955  	87.897500 
684.332613  	86.919762 
685.764271  	85.901853 
687.195929  	85.285779 
688.627587  	85.082903 
690.059246  	85.102227 
691.490904  	84.915177 
692.922562  	84.431038 
694.354220  	83.669793 
695.785878  	82.761186 
697.217537  	82.101494 
698.649195  	81.546271 
700.080853  	80.781276 
701.512511  	79.949380 
702.944169  	79.278986 
704.375827  	78.949307 
705.807486  	78.780422 
707.239144  	78.777880 
708.670802  	79.277939 
710.102460  	79.935255 
711.534118  	80.605375 
712.965777  	81.492899 
714.397435  	82.235269 
715.829093  	82.785982 
717.260751  	83.301271 
718.692409  	83.558539 
720.124067  	83.478828 
721.555726  	83.002845 
722.987384  	82.263851 
724.419042  	81.617377 
725.850700  	81.093570 
727.282358  	80.780206 
728.714017  	80.626090 
730.145675  	80.361111 
731.577333  	80.271672 
733.008991  	80.398616 
734.440649  	80.447781 
735.872308  	80.572322 
737.303966  	80.630422 
738.735624  	80.407426 
740.167282  	79.976662 
741.598940  	79.199411 
743.030598  	78.252334 
744.462257  	77.278001 
745.893915  	76.112693 
747.325573  	75.055237 
748.757231  	74.080827 
750.188889  	72.980084 
751.620548  	72.090076 
753.052206  	71.250747 
754.483864  	70.191476 
755.915522  	69.130038 
757.347180  	68.106782 
758.778839  	67.290534 
760.210497  	66.762739 
761.642155  	66.225998 
763.073813  	65.593699 
764.505471  	64.847619 
765.937129  	64.145712 
767.368788  	63.958005 
768.800446  	64.528283 
770.232104  	65.890129 
771.663762  	67.842185 
773.095420  	70.055732 
774.527079  	72.392086 
775.958737  	74.719994 
777.390395  	76.841964 
778.822053  	78.662732 
780.253711  	80.129283 
781.685369  	81.191817 
783.117028  	81.975721 
784.548686  	82.616329 
785.980344  	83.011536 
787.412002  	83.150657 
788.843660  	83.266523 
790.275319  	83.326757 
791.706977  	83.169971 
793.138635  	82.912118 
794.570293  	82.415271 
796.001951  	81.477878 
797.433610  	80.335549 
798.865268  	78.890179 
800.296926  	76.889738 
801.728584  	74.516856 
803.160242  	71.780938 
804.591900  	68.811417 
806.023559  	65.972188 
807.455217  	63.272208 
808.886875  	60.746769 
810.318533  	58.468455 
811.750191  	56.654776 
813.181850  	55.651267 
814.613508  	55.306275 
816.045166  	55.476029 
817.476824  	56.002026 
818.908482  	56.357603 
820.340141  	56.204456 
821.771799  	55.293096 
823.203457  	53.527862 
824.635115  	51.323425 
826.066773  	49.215750 
827.498431  	47.858186 
828.930090  	47.710642 
830.361748  	48.775418 
831.793406  	50.972526 
833.225064  	53.858483 
834.656722  	57.048128 
836.088381  	60.368949 
837.520039  	63.433604 
838.951697  	66.111090 
840.383355  	68.405794 
841.815013  	70.212468 
843.246671  	71.739380 
844.678330  	73.294950 
846.109988  	75.018236 
847.541646  	76.950039 
848.973304  	79.027830 
850.404962  	81.248982 
851.836621  	83.541668 
853.268279  	85.731070 
854.699937  	87.779319 
856.131595  	89.638474 
857.563253  	91.180666 
858.994912  	92.333284 
860.426570  	93.087417 
861.858228  	93.477497 
863.289886  	93.565125 
864.721544  	93.426825 
866.153202  	93.153349 
867.584861  	92.725555 
869.016519  	92.061768 
870.448177  	91.199965 
871.879835  	90.135853 
873.311493  	88.854492 
874.743152  	87.401535 
876.174810  	85.720364 
877.606468  	83.906278 
879.038126  	82.037022 
880.469784  	79.977172 
881.901443  	77.889304 
883.333101  	75.944117 
884.764759  	74.284266 
886.196417  	73.341905 
887.628075  	73.302224 
889.059733  	74.424960 
890.491392  	76.957592 
891.923050  	80.484146 
893.354708  	84.466735 
894.786366  	88.258894 
896.218024  	91.144409 
897.649683  	93.007717 
899.081341  	94.041478 
900.512999  	94.426899 
901.944657  	94.579125 
903.376315  	94.630637 
904.807973  	94.445228 
906.239632  	94.142698 
907.671290  	93.780347 
909.102948  	93.385455 
910.534606  	93.011728 
911.966264  	92.467400 
913.397923  	91.725351 
914.829581  	91.026824 
916.261239  	90.493386 
917.692897  	90.092868 
919.124555  	89.847979 
920.556214  	89.958628 
921.987872  	90.417665 
923.419530  	90.939819 
924.851188  	91.359417 
926.282846  	91.509312 
927.714504  	91.278154 
929.146163  	90.830158 
930.577821  	90.240559 
932.009479  	89.533559 
933.441137  	88.886024 
934.872795  	88.439840 
936.304454  	88.237802 
937.736112  	88.099954 
939.167770  	87.835567 
940.599428  	87.536633 
942.031086  	87.315488 
943.462744  	87.227979 
944.894403  	87.294818 
946.326061  	87.474342 
947.757719  	87.756971 
949.189377  	87.984512 
950.621035  	87.979993 
952.052694  	87.778078 
953.484352  	87.364258 
954.916010  	86.771139 
956.347668  	86.150157 
957.779326  	85.583091 
959.210985  	85.244175 
960.642643  	85.137841 
962.074301  	85.053881 
963.505959  	85.020268 
964.937617  	85.051053 
966.369275  	85.026420 
967.800934  	84.924383 
969.232592  	84.732462 
970.664250  	84.486975 
972.095908  	84.178789 
973.527566  	83.741003 
974.959225  	83.277537 
976.390883  	82.805720 
977.822541  	82.235226 
979.254199  	81.556597 
980.685857  	80.729667 
982.117516  	79.810089 
983.549174  	78.815300 
984.980832  	77.624665 
986.412490  	76.213544 
987.844148  	74.516517 
989.275806  	72.648277 
990.707465  	70.896270 
992.139123  	69.330309 
993.570781  	68.143911 
995.002439  	67.268720 
996.434097  	66.205544 
997.865756  	64.692777 
999.297414  	62.259665 
1000.729072  	58.554392 
1002.160730  	54.212126 
1003.592388  	50.203909 
1005.024046  	47.498313 
1006.455705  	46.341775 
1007.887363  	45.937141 
1009.319021  	45.197437 
1010.750679  	42.365320 
1012.182337  	37.160801 
1013.613996  	33.672345 
1015.045654  	36.640953 
1016.477312  	46.074505 
1017.908970  	57.732117 
1019.340628  	68.053328 
1020.772287  	75.928326 
1022.203945  	81.545254 
1023.635603  	85.767050 
1025.067261  	88.955937 
1026.498919  	90.888211 
1027.930577  	91.732913 
1029.362236  	91.953690 
1030.793894  	91.778831 
1032.225552  	91.379841 
1033.657210  	90.903775 
1035.088868  	90.312285 
1036.520527  	89.685822 
1037.952185  	89.080562 
1039.383843  	88.401236 
1040.815501  	87.754828 
1042.247159  	87.212578 
1043.678818  	86.630355 
1045.110476  	85.947162 
1046.542134  	85.258365 
1047.973792  	84.617302 
1049.405450  	83.888703 
1050.837108  	83.069368 
1052.268767  	82.275604 
1053.700425  	81.455266 
1055.132083  	80.754163 
1056.563741  	80.229904 
1057.995399  	79.613872 
1059.427058  	78.931548 
1060.858716  	78.196388 
1062.290374  	77.314873 
1063.722032  	76.347933 
1065.153690  	75.135982 
1066.585348  	73.715118 
1068.017007  	72.173253 
1069.448665  	70.185728 
1070.880323  	67.783973 
1072.311981  	64.919576 
1073.743639  	61.167058 
1075.175298  	56.278336 
1076.606956  	50.041886 
1078.038614  	43.992193 
1079.470272  	41.182798 
1080.901930  	42.865780 
1082.333589  	48.454859 
1083.765247  	56.017456 
1085.196905  	63.423208 
1086.628563  	69.372110 
1088.060221  	73.077948 
1089.491879  	74.537488 
1090.923538  	74.380186 
1092.355196  	73.182743 
1093.786854  	71.401693 
1095.218512  	69.149439 
1096.650170  	66.303394 
1098.081829  	63.290062 
1099.513487  	60.530945 
1100.945145  	58.580703 
1102.376803  	58.063397 
1103.808461  	58.380416 
1105.240120  	58.779487 
1106.671778  	58.941922 
1108.103436  	58.765032 
1109.535094  	58.867155 
1110.966752  	59.512314 
1112.398410  	60.376887 
1113.830069  	61.294224 
1115.261727  	61.899388 
1116.693385  	62.114224 
1118.125043  	62.088474 
1119.556701  	61.631000 
1120.988360  	60.895807 
1122.420018  	60.061957 
1123.851676  	58.977991 
1125.283334  	57.713251 
1126.714992  	56.255544 
1128.146650  	54.724574 
1129.578309  	53.225499 
1131.009967  	51.467563 
1132.441625  	49.623688 
1133.873283  	47.771099 
1135.304941  	45.706919 
1136.736600  	43.656085 
1138.168258  	41.460945 
1139.599916  	39.105232 
1141.031574  	36.862781 
1142.463232  	34.469968 
1143.894891  	32.124700 
1145.326549  	29.917952 
1146.758207  	27.610134 
1148.189865  	25.553321 
1149.621523  	23.550682 
1151.053181  	21.574333 
1152.484840  	19.981724 
1153.916498  	18.406827 
1155.348156  	17.176902 
1156.779814  	16.469597 
1158.211472  	15.990524 
1159.643131  	16.445545 
1161.074789  	17.828617 
1162.506447  	20.034064 
1163.938105  	23.542436 
1165.369763  	27.939646 
1166.801421  	33.102434 
1168.233080  	38.540295 
1169.664738  	42.889527 
1171.096396  	45.315493 
1172.528054  	45.028723 
1173.959712  	41.980473 
1175.391371  	37.635578 
1176.823029  	33.266170 
1178.254687  	29.636773 
1179.686345  	26.858599 
1181.118003  	24.106301 
1182.549662  	21.519857 
1183.981320  	19.419207 
1185.412978  	17.962088 
1186.844636  	17.812257 
1188.276294  	18.474603 
1189.707952  	19.662543 
1191.139611  	21.634940 
1192.571269  	23.791306 
1194.002927  	26.305835 
1195.434585  	29.348955 
1196.866243  	32.502044 
1198.297902  	35.964950 
1199.729560  	39.542339 
1201.161218  	43.080815 
1202.592876  	46.588805 
1204.024534  	49.322876 
1205.456193  	50.784791 
1206.887851  	50.441971 
1208.319509  	47.755514 
1209.751167  	43.499483 
1211.182825  	38.674590 
1212.614483  	34.071581 
1214.046142  	30.694080 
1215.477800  	28.399395 
1216.909458  	27.098356 
1218.341116  	26.807785 
1219.772774  	26.851644 
1221.204433  	27.422468 
1222.636091  	28.421348 
1224.067749  	29.416552 
1225.499407  	30.719654 
1226.931065  	32.046532 
1228.362723  	33.357190 
1229.794382  	34.897939 
1231.226040  	36.291191 
1232.657698  	37.731207 
1234.089356  	39.215603 
1235.521014  	40.517573 
1236.952673  	41.995679 
1238.384331  	43.394405 
1239.815989  	44.675795 
1241.247647  	46.158543 
1242.679305  	47.514111 
1244.110964  	48.959869 
1245.542622  	50.671294 
1246.974280  	52.421061 
1248.405938  	54.531999 
1249.837596  	56.880976 
1251.269254  	59.375417 
1252.700913  	62.290641 
1254.132571  	65.328323 
1255.564229  	68.530461 
1256.995887  	71.982130 
1258.427545  	75.334527 
1259.859204  	78.685373 
1261.290862  	82.001310 
1262.722520  	85.001577 
1264.154178  	87.716648 
1265.585836  	90.097914 
1267.017495  	92.049336 
1268.449153  	93.635422 
1269.880811  	94.880826 
1271.312469  	95.812254 
1272.744127  	96.491122 
1274.175785  	96.884683 
1275.607444  	97.031041 
1277.039102  	97.011993 
1278.470760  	96.775987 
1279.902418  	96.352692 
1281.334076  	95.832654 
1282.765735  	95.236548 
1284.197393  	94.606749 
1285.629051  	93.981494 
1287.060709  	93.422391 
1288.492367  	92.961074 
1289.924025  	92.631606 
1291.355684  	92.575581 
1292.787342  	92.876501 
1294.219000  	93.529735 
1295.650658  	94.463992 
1297.082316  	95.573555 
1298.513975  	96.762297 
1299.945633  	97.890046 
1301.377291  	98.794939 
1302.808949  	99.487928 
1304.240607  	99.987946 
1305.672266  	100.087552 
1307.103924  	99.838846 
1308.535582  	99.543170 
1309.967240  	99.496325 
1311.398898  	99.971865 
1312.830556  	100.925666 
1314.262215  	102.044022 
1315.693873  	103.078779 
1317.125531  	103.804373 
1318.557189  	104.223394 
1319.988847  	104.565681 
1321.420506  	104.775035 
1322.852164  	104.900991 
1324.283822  	105.013445 
1325.715480  	105.062155 
1327.147138  	105.195984 
1328.578796  	105.323695 
1330.010455  	105.323645 
1331.442113  	105.346144 
1332.873771  	105.344953 
1334.305429  	105.339562 
1335.737087  	105.327491 
1337.168746  	105.181931 
1338.600404  	105.083932 
1340.032062  	105.023412 
1341.463720  	104.902111 
1342.895378  	104.836527 
1344.327037  	104.664234 
1345.758695  	104.380141 
1347.190353  	104.040817 
1348.622011  	103.558243 
1350.053669  	103.164848 
1351.485327  	102.851449 
1352.916986  	102.540101 
1354.348644  	102.386424 
1355.780302  	102.178366 
1357.211960  	101.845107 
1358.643618  	101.183837 
1360.075277  	99.552475 
1361.506935  	96.951808 
1362.938593  	93.996071 
1364.370251  	92.676070 
1365.801909  	93.685307 
1367.233568  	96.036722 
1368.665226  	98.733917 
1370.096884  	100.744571 
1371.528542  	101.834068 
1372.960200  	102.322142 
1374.391858  	102.687836 
1375.823517  	102.938487 
1377.255175  	102.997508 
1378.686833  	102.940034 
1380.118491  	102.633862 
1381.550149  	102.000817 
1382.981808  	100.793807 
1384.413466  	99.332650 
1385.845124  	98.274525 
1387.276782  	98.206536 
1388.708440  	99.213138 
1390.140098  	100.346133 
1391.571757  	101.449931 
1393.003415  	102.159140 
1394.435073  	102.386593 
1395.866731  	102.503381 
1397.298389  	102.353432 
1398.730048  	101.870071 
1400.161706  	101.291373 
1401.593364  	100.467724 
1403.025022  	99.263382 
1404.456680  	97.774514 
1405.888339  	95.987862 
1407.319997  	94.409553 
1408.751655  	93.606783 
1410.183313  	93.562077 
1411.614971  	94.536591 
1413.046629  	96.250785 
1414.478288  	97.986077 
1415.909946  	99.684516 
1417.341604  	100.950396 
1418.773262  	101.800809 
1420.204920  	102.811697 
1421.636579  	103.265166 
1423.068237  	103.484449 
1424.499895  	103.950972 
1425.931553  	104.229547 
1427.363211  	104.390435 
1428.794870  	104.543508 
1430.226528  	104.527977 
1431.658186  	104.639740 
1433.089844  	104.610983 
1434.521502  	104.400025 
1435.953160  	104.282651 
1437.384819  	103.936635 
1438.816477  	103.609278 
1440.248135  	103.153374 
1441.679793  	102.352120 
1443.111451  	101.706835 
1444.543110  	100.948726 
1445.974768  	100.006024 
1447.406426  	99.163766 
1448.838084  	98.379946 
1450.269742  	98.319029 
1451.701400  	98.784389 
1453.133059  	99.208903 
1454.564717  	99.428895 
1455.996375  	99.305456 
1457.428033  	98.423043 
1458.859691  	97.590354 
1460.291350  	96.556073 
1461.723008  	95.582191 
1463.154666  	94.894435 
1464.586324  	94.426164 
1466.017982  	94.777695 
1467.449641  	95.135093 
1468.881299  	95.475385 
1470.312957  	95.967119 
1471.744615  	96.065689 
1473.176273  	96.421601 
1474.607931  	96.809604 
1476.039590  	96.514484 
1477.471248  	96.428898 
1478.902906  	96.159775 
1480.334564  	95.396839 
1481.766222  	94.677753 
1483.197881  	93.498160 
1484.629539  	91.909619 
1486.061197  	90.263134 
1487.492855  	87.818740 
1488.924513  	85.194983 
1490.356172  	82.441734 
1491.787830  	78.497990 
1493.219488  	75.169314 
1494.651146  	71.809772 
1496.082804  	67.290115 
1497.514462  	63.260741 
1498.946121  	59.563474 
1500.377779  	56.247636 
1501.809437  	54.796538 
1503.241095  	54.063606 
1504.672753  	54.177031 
1506.104412  	56.714304 
1507.536070  	62.409302 
1508.967728  	68.166989 
1510.399386  	73.628700 
1511.831044  	79.198476 
1513.262702  	84.647129 
1514.694361  	88.670998 
1516.126019  	91.543022 
1517.557677  	94.691499 
1518.989335  	96.595304 
1520.420993  	97.235243 
1521.852652  	98.627239 
1523.284310  	99.778200 
1524.715968  	100.078012 
1526.147626  	100.831557 
1527.579284  	101.479312 
1529.010943  	101.908400 
1530.442601  	102.519093 
1531.874259  	102.747422 
1533.305917  	103.066669 
1534.737575  	103.950187 
1536.169233  	104.300717 
1537.600892  	104.555723 
1539.032550  	104.716624 
1540.464208  	104.847512 
1541.895866  	105.508065 
1543.327524  	105.611436 
1544.759183  	105.734888 
1546.190841  	106.150860 
1547.622499  	106.165964 
1549.054157  	106.123438 
1550.485815  	106.239689 
1551.917473  	106.307044 
1553.349132  	106.357188 
1554.780790  	106.316217 
1556.212448  	106.262769 
1557.644106  	106.132725 
1559.075764  	105.811805 
1560.507423  	106.359582 
1561.939081  	106.275240 
1563.370739  	105.961740 
1564.802397  	105.752647 
1566.234055  	105.390088 
1567.665714  	104.887809 
1569.097372  	104.369566 
1570.529030  	104.167815 
1571.960688  	104.635371 
1573.392346  	105.127138 
1574.824004  	105.324590 
1576.255663  	105.344018 
1577.687321  	105.274571 
1579.118979  	105.025868 
1580.550637  	104.665621 
1581.982295  	104.147271 
1583.413954  	103.503712 
1584.845612  	102.800266 
1586.277270  	102.221760 
1587.708928  	101.751276 
1589.140586  	101.238799 
1590.572245  	100.862319 
1592.003903  	100.613990 
1593.435561  	100.551619 
1594.867219  	100.774978 
1596.298877  	101.009531 
1597.730535  	101.113621 
1599.162194  	101.040800 
1600.593852  	100.831690 
1602.025510  	100.701623 
1603.457168  	100.717345 
1604.888826  	100.975102 
1606.320485  	101.443860 
1607.752143  	102.055228 
1609.183801  	102.850627 
1610.615459  	103.589010 
1612.047117  	104.235769 
1613.478775  	104.711041 
1614.910434  	104.939881 
1616.342092  	105.184397 
1617.773750  	105.557601 
1619.205408  	105.738392 
1620.637066  	105.774667 
1622.068725  	105.762114 
1623.500383  	105.850993 
1624.932041  	105.944508 
1626.363699  	105.902827 
1627.795357  	105.877087 
1629.227016  	105.874143 
1630.658674  	105.815484 
1632.090332  	105.737904 
1633.521990  	105.609276 
1634.953648  	105.439410 
1636.385306  	105.499319 
1637.816965  	105.672910 
1639.248623  	105.748185 
1640.680281  	105.839454 
1642.111939  	105.876442 
1643.543597  	105.833377 
1644.975256  	105.736066 
1646.406914  	105.663065 
1647.838572  	105.847636 
1649.270230  	105.953990 
1650.701888  	105.851761 
1652.133547  	105.667760 
1653.565205  	105.764028 
1654.996863  	106.080346 
1656.428521  	106.093498 
1657.860179  	106.114226 
1659.291837  	106.185768 
1660.723496  	106.168772 
1662.155154  	106.110333 
1663.586812  	106.180313 
1665.018470  	106.261744 
1666.450128  	106.262157 
1667.881787  	106.167260 
1669.313445  	106.108631 
1670.745103  	106.361773 
1672.176761  	106.486955 
1673.608419  	106.372697 
1675.040077  	106.356958 
1676.471736  	106.541116 
1677.903394  	106.567874 
1679.335052  	106.461161 
1680.766710  	106.354501 
1682.198368  	106.295869 
1683.630027  	106.099591 
1685.061685  	106.240062 
1686.493343  	106.444904 
1687.925001  	106.283261 
1689.356659  	106.167499 
1690.788318  	106.170586 
1692.219976  	106.033243 
1693.651634  	105.879085 
1695.083292  	105.637111 
1696.514950  	105.452701 
1697.946608  	105.453049 
1699.378267  	105.046242 
1700.809925  	104.786638 
1702.241583  	104.994120 
1703.673241  	104.603662 
1705.104899  	104.312074 
1706.536558  	104.264395 
1707.968216  	103.951882 
1709.399874  	103.774842 
1710.831532  	103.522310 
1712.263190  	103.120836 
1713.694849  	102.869205 
1715.126507  	102.432396 
1716.558165  	102.066263 
1717.989823  	101.955027 
1719.421481  	101.577076 
1720.853139  	101.385057 
1722.284798  	101.032636 
1723.716456  	100.458259 
1725.148114  	100.122144 
1726.579772  	99.594865 
1728.011430  	99.068982 
1729.443089  	98.747186 
1730.874747  	98.169149 
1732.306405  	97.825139 
1733.738063  	97.499532 
1735.169721  	96.852845 
1736.601379  	96.668716 
1738.033038  	96.048271 
1739.464696  	95.270271 
1740.896354  	94.875930 
1742.328012  	93.962805 
1743.759670  	93.138785 
1745.191329  	92.308720 
1746.622987  	90.822760 
1748.054645  	89.558844 
1749.486303  	87.989813 
1750.917961  	85.762819 
1752.349620  	83.632913 
1753.781278  	80.860851 
1755.212936  	77.954072 
1756.644594  	74.623087 
1758.076252  	69.893052 
1759.507910  	65.664081 
1760.939569  	61.501027 
1762.371227  	56.282399 
1763.802885  	52.399739 
1765.234543  	49.664558 
1766.666201  	47.288104 
1768.097860  	46.592618 
1769.529518  	46.579870 
1770.961176  	46.687279 
1772.392834  	48.793975 
1773.824492  	50.970349 
1775.256150  	52.704128 
1776.687809  	55.469427 
1778.119467  	57.835033 
1779.551125  	60.327137 
1780.982783  	63.873149 
1782.414441  	66.730593 
1783.846100  	69.650229 
1785.277758  	73.147192 
1786.709416  	76.082962 
1788.141074  	79.322959 
1789.572732  	82.376464 
1791.004391  	84.904177 
1792.436049  	88.601145 
1793.867707  	91.622172 
1795.299365  	93.682145 
1796.731023  	96.081685 
1798.162681  	97.672099 
1799.594340  	99.195595 
1801.025998  	100.834697 
1802.457656  	101.655876 
1803.889314  	102.782412 
1805.320972  	103.519831 
1806.752631  	103.854226 
1808.184289  	104.664623 
1809.615947  	104.934186 
1811.047605  	105.185608 
1812.479263  	105.760355 
1813.910922  	105.825856 
1815.342580  	106.208772 
1816.774238  	106.483604 
1818.205896  	106.419781 
1819.637554  	106.831158 
1821.069212  	106.801236 
1822.500871  	106.722201 
1823.932529  	107.022479 
1825.364187  	106.881098 
1826.795845  	107.134853 
1828.227503  	107.363953 
1829.659162  	107.113376 
1831.090820  	107.441882 
1832.522478  	107.491332 
1833.954136  	107.426281 
1835.385794  	107.714177 
1836.817452  	107.582693 
1838.249111  	107.664594 
1839.680769  	107.841338 
1841.112427  	107.557100 
1842.544085  	107.639541 
1843.975743  	107.668890 
1845.407402  	107.653777 
1846.839060  	108.057965 
1848.270718  	107.956977 
1849.702376  	107.922478 
1851.134034  	108.011147 
1852.565693  	107.759429 
1853.997351  	107.960042 
1855.429009  	108.014798 
1856.860667  	107.764283 
1858.292325  	107.979714 
1859.723983  	107.924988 
1861.155642  	107.931750 
1862.587300  	108.209696 
1864.018958  	108.045646 
1865.450616  	108.145636 
1866.882274  	108.138980 
1868.313933  	107.710174 
1869.745591  	107.999055 
1871.177249  	108.013013 
1872.608907  	107.806772 
1874.040565  	107.964453 
1875.472224  	107.778162 
1876.903882  	107.775351 
1878.335540  	107.972348 
1879.767198  	107.838709 
1881.198856  	107.962066 
1882.630514  	107.880529 
1884.062173  	107.668094 
1885.493831  	107.815774 
1886.925489  	107.556568 
1888.357147  	107.371623 
1889.788805  	107.477577 
1891.220464  	107.233223 
1892.652122  	107.176942 
1894.083780  	107.039261 
1895.515438  	106.918316 
1896.947096  	107.207635 
1898.378754  	107.059915 
1899.810413  	106.977048 
1901.242071  	107.183200 
1902.673729  	106.954554 
1904.105387  	106.937789 
1905.537045  	107.052779 
1906.968704  	107.103518 
1908.400362  	107.449929 
1909.832020  	107.511971 
1911.263678  	107.783191 
1912.695336  	108.237596 
1914.126995  	108.037460 
1915.558653  	108.199671 
1916.990311  	108.483387 
1918.421969  	108.212428 
1919.853627  	108.381431 
1921.285285  	108.287762 
1922.716944  	108.067705 
1924.148602  	108.420557 
1925.580260  	108.307335 
1927.011918  	108.343067 
1928.443576  	108.657263 
1929.875235  	108.548995 
1931.306893  	108.757720 
1932.738551  	108.641564 
1934.170209  	108.342670 
1935.601867  	108.860185 
1937.033525  	108.857875 
1938.465184  	108.543691 
1939.896842  	108.507773 
1941.328500  	108.145329 
1942.760158  	108.426885 
1944.191816  	108.765695 
1945.623475  	108.516217 
1947.055133  	108.657004 
1948.486791  	108.399751 
1949.918449  	108.268721 
1951.350107  	108.683988 
1952.781766  	108.427324 
1954.213424  	108.364121 
1955.645082  	108.394420 
1957.076740  	108.251551 
1958.508398  	108.824025 
1959.940056  	108.489044 
1961.371715  	107.839242 
1962.803373  	108.236477 
1964.235031  	108.033828 
1965.666689  	108.080906 
1967.098347  	108.357840 
1968.530006  	107.901128 
1969.961664  	108.221163 
1971.393322  	108.083725 
1972.824980  	107.829298 
1974.256638  	108.638026 
1975.688297  	107.903765 
1977.119955  	107.250242 
1978.551613  	108.357813 
1979.983271  	108.705592 
1981.414929  	108.588691 
1982.846587  	108.256816 
1984.278246  	108.032773 
1985.709904  	108.338864 
1987.141562  	107.962250 
1988.573220  	108.019696 
1990.004878  	108.439469 
1991.436537  	107.840264 
1992.868195  	108.049561 
1994.299853  	108.464147 
1995.731511  	108.058801 
1997.163169  	108.241683 
1998.594827  	108.256535 
2000.026486  	108.254513 
2001.458144  	108.486356 
2002.889802  	107.884130 
2004.321460  	108.117106 
2005.753118  	108.806922 
2007.184777  	108.340719 
2008.616435  	108.290626 
2010.048093  	108.233955 
2011.479751  	108.172187 
2012.911409  	108.457070 
2014.343068  	107.880137 
2015.774726  	108.084623 
2017.206384  	108.759990 
2018.638042  	108.392511 
2020.069700  	108.662486 
2021.501358  	108.458276 
2022.933017  	107.894325 
2024.364675  	108.316771 
2025.796333  	107.652493 
2027.227991  	107.331186 
2028.659649  	108.273793 
2030.091308  	108.126856 
2031.522966  	107.967361 
2032.954624  	107.890256 
2034.386282  	107.511577 
2035.817940  	107.861681 
2037.249599  	107.757077 
2038.681257  	107.800493 
2040.112915  	108.254864 
2041.544573  	107.953646 
2042.976231  	108.196435 
2044.407889  	108.361757 
2045.839548  	107.876840 
2047.271206  	108.104360 
2048.702864  	107.971754 
2050.134522  	107.782340 
2051.566180  	108.105215 
2052.997839  	107.757349 
2054.429497  	107.786520 
2055.861155  	108.270856 
2057.292813  	108.262631 
2058.724471  	108.618620 
2060.156129  	108.699051 
2061.587788  	108.316293 
2063.019446  	108.579556 
2064.451104  	108.757787 
2065.882762  	108.712272 
2067.314420  	108.773993 
2068.746079  	108.674439 
2070.177737  	108.717478 
2071.609395  	108.427315 
2073.041053  	108.153361 
2074.472711  	108.590184 
2075.904370  	108.709172 
2077.336028  	108.638559 
2078.767686  	108.801901 
2080.199344  	108.701751 
2081.631002  	108.779400 
2083.062660  	108.812583 
2084.494319  	108.659839 
2085.925977  	108.822169 
2087.357635  	108.691842 
2088.789293  	108.559422 
2090.220951  	108.803750 
2091.652610  	108.731301 
2093.084268  	108.827068 
2094.515926  	109.053328 
2095.947584  	108.974666 
2097.379242  	109.203038 
2098.810901  	109.151045 
2100.242559  	108.728828 
2101.674217  	108.731675 
2103.105875  	108.802261 
2104.537533  	109.050311 
2105.969191  	109.289370 
2107.400850  	109.065377 
2108.832508  	109.100619 
2110.264166  	109.106505 
2111.695824  	108.848773 
2113.127482  	108.921283 
2114.559141  	108.928072 
2115.990799  	108.997539 
2117.422457  	109.236042 
2118.854115  	109.140788 
2120.285773  	109.203297 
2121.717431  	109.226931 
2123.149090  	108.917219 
2124.580748  	108.971380 
2126.012406  	108.990901 
2127.444064  	108.861686 
2128.875722  	109.037297 
2130.307381  	109.113469 
2131.739039  	109.212038 
2133.170697  	109.151987 
2134.602355  	108.717150 
2136.034013  	108.721664 
2137.465672  	108.668619 
2138.897330  	108.422999 
2140.328988  	108.672141 
2141.760646  	108.817394 
2143.192304  	108.759585 
2144.623962  	108.456407 
2146.055621  	108.112359 
2147.487279  	108.709268 
2148.918937  	109.008770 
2150.350595  	108.489151 
2151.782253  	108.310244 
2153.213912  	108.067086 
2154.645570  	108.215446 
2156.077228  	108.641927 
2157.508886  	108.479746 
2158.940544  	108.831576 
2160.372202  	108.418052 
2161.803861  	107.549106 
2163.235519  	108.308864 
2164.667177  	108.717624 
2166.098835  	108.402455 
2167.530493  	108.396144 
2168.962152  	108.310123 
2170.393810  	108.742538 
2171.825468  	108.883927 
2173.257126  	108.468422 
2174.688784  	108.806979 
2176.120443  	108.875003 
2177.552101  	108.651464 
2178.983759  	108.708146 
2180.415417  	108.281078 
2181.847075  	108.613212 
2183.278733  	109.134871 
2184.710392  	108.260178 
2186.142050  	107.888604 
2187.573708  	108.187226 
2189.005366  	108.086651 
2190.437024  	108.175023 
2191.868683  	108.396883 
2193.300341  	108.593812 
2194.731999  	108.464089 
2196.163657  	107.966502 
2197.595315  	108.111590 
2199.026974  	108.400230 
2200.458632  	108.273677 
2201.890290  	108.271419 
2203.321948  	108.304566 
2204.753606  	108.575455 
2206.185264  	108.727637 
2207.616923  	108.371757 
2209.048581  	108.452327 
2210.480239  	108.612942 
2211.911897  	108.535365 
2213.343555  	108.791881 
2214.775214  	108.724283 
2216.206872  	108.433208 
2217.638530  	108.315081 
2219.070188  	108.057974 
2220.501846  	108.131454 
2221.933504  	108.207355 
2223.365163  	108.049908 
2224.796821  	108.211109 
2226.228479  	108.033882 
2227.660137  	107.800273 
2229.091795  	108.166501 
2230.523454  	108.327714 
2231.955112  	108.354374 
2233.386770  	108.366563 
2234.818428  	108.165116 
2236.250086  	108.298048 
2237.681745  	108.299824 
2239.113403  	108.008731 
2240.545061  	108.093307 
2241.976719  	108.176123 
2243.408377  	108.175041 
2244.840035  	108.240255 
2246.271694  	108.272353 
2247.703352  	108.560887 
2249.135010  	108.614507 
2250.566668  	108.340662 
2251.998326  	108.453641 
2253.429985  	108.562399 
2254.861643  	108.486611 
2256.293301  	108.482120 
2257.724959  	108.370008 
2259.156617  	108.454746 
2260.588276  	108.673675 
2262.019934  	108.697538 
2263.451592  	108.744491 
2264.883250  	108.759854 
2266.314908  	108.913902 
2267.746566  	109.291367 
2269.178225  	109.357696 
2270.609883  	109.154343 
2272.041541  	108.904523 
2273.473199  	108.817747 
2274.904857  	109.106984 
2276.336516  	109.251006 
2277.768174  	109.185023 
2279.199832  	109.270211 
2280.631490  	109.264657 
2282.063148  	109.203145 
2283.494806  	109.197182 
2284.926465  	109.195625 
2286.358123  	109.277946 
2287.789781  	109.215086 
2289.221439  	109.130525 
2290.653097  	109.237997 
2292.084756  	109.177859 
2293.516414  	109.064555 
2294.948072  	109.073124 
2296.379730  	108.997828 
2297.811388  	109.041655 
2299.243047  	109.145633 
2300.674705  	108.993438 
2302.106363  	108.750517 
2303.538021  	108.581533 
2304.969679  	108.536007 
2306.401337  	108.483267 
2307.832996  	108.288610 
2309.264654  	108.180596 
2310.696312  	108.061985 
2312.127970  	107.821249 
2313.559628  	107.788555 
2314.991287  	107.864541 
2316.422945  	107.798990 
2317.854603  	107.592434 
2319.286261  	107.229214 
2320.717919  	106.923597 
2322.149577  	106.806812 
2323.581236  	106.832015 
2325.012894  	106.886575 
2326.444552  	106.686237 
2327.876210  	106.355878 
2329.307868  	106.154577 
2330.739527  	106.011199 
2332.171185  	106.065875 
2333.602843  	106.295175 
2335.034501  	106.370549 
2336.466159  	106.274694 
2337.897818  	106.079787 
2339.329476  	105.971077 
2340.761134  	105.973137 
2342.192792  	105.856747 
2343.624450  	105.835276 
2345.056108  	106.004867 
2346.487767  	106.386724 
2347.919425  	107.031149 
2349.351083  	107.254185 
2350.782741  	106.753248 
2352.214399  	106.126838 
2353.646058  	105.799265 
2355.077716  	105.497084 
2356.509374  	105.159753 
2357.941032  	104.879037 
2359.372690  	104.769022 
2360.804349  	104.736555 
2362.236007  	104.654307 
2363.667665  	104.804791 
2365.099323  	105.127656 
2366.530981  	105.408294 
2367.962639  	105.687776 
2369.394298  	105.897536 
2370.825956  	106.161035 
2372.257614  	106.473278 
2373.689272  	106.722579 
2375.120930  	107.063368 
2376.552589  	107.352836 
2377.984247  	107.582053 
2379.415905  	107.982826 
2380.847563  	108.331274 
2382.279221  	108.552616 
2383.710879  	108.798800 
2385.142538  	108.965524 
2386.574196  	109.064878 
2388.005854  	109.090321 
2389.437512  	109.000556 
2390.869170  	109.032398 
2392.300829  	109.170804 
2393.732487  	109.168706 
2395.164145  	109.103811 
2396.595803  	109.129350 
2398.027461  	109.170855 
2399.459120  	109.155220 
2400.890778  	109.171115 
2402.322436  	109.155374 
2403.754094  	109.020563 
2405.185752  	108.989951 
2406.617410  	109.012745 
2408.049069  	108.936565 
2409.480727  	108.994244 
2410.912385  	109.062699 
2412.344043  	108.996729 
2413.775701  	109.057122 
2415.207360  	109.093936 
2416.639018  	109.009674 
2418.070676  	109.060310 
2419.502334  	109.128063 
2420.933992  	109.091429 
2422.365651  	109.035198 
2423.797309  	109.011486 
2425.228967  	109.106426 
2426.660625  	109.224642 
2428.092283  	109.256913 
2429.523941  	109.195195 
2430.955600  	109.053775 
2432.387258  	109.076515 
2433.818916  	109.217249 
2435.250574  	109.208504 
2436.682232  	109.215309 
2438.113891  	109.285169 
2439.545549  	109.286403 
2440.977207  	109.282639 
2442.408865  	109.258617 
2443.840523  	109.252363 
2445.272181  	109.255993 
2446.703840  	109.178756 
2448.135498  	109.169900 
2449.567156  	109.233365 
2450.998814  	109.278814 
2452.430472  	109.344180 
2453.862131  	109.349053 
2455.293789  	109.337208 
2456.725447  	109.332645 
2458.157105  	109.271742 
2459.588763  	109.300559 
2461.020422  	109.321452 
2462.452080  	109.255831 
2463.883738  	109.299720 
2465.315396  	109.274106 
2466.747054  	109.148317 
2468.178712  	109.193887 
2469.610371  	109.276472 
2471.042029  	109.280387 
2472.473687  	109.287367 
2473.905345  	109.297228 
2475.337003  	109.274690 
2476.768662  	109.169105 
2478.200320  	109.163036 
2479.631978  	109.305508 
2481.063636  	109.351330 
2482.495294  	109.367778 
2483.926953  	109.351949 
2485.358611  	109.256286 
2486.790269  	109.313217 
2488.221927  	109.358333 
2489.653585  	109.318953 
2491.085243  	109.429807 
2492.516902  	109.474205 
2493.948560  	109.420234 
2495.380218  	109.424969 
2496.811876  	109.382309 
2498.243534  	109.429759 
2499.675193  	109.532316 
2501.106851  	109.504556 
2502.538509  	109.512446 
2503.970167  	109.544738 
2505.401825  	109.555810 
2506.833483  	109.582638 
2508.265142  	109.538400 
2509.696800  	109.552241 
2511.128458  	109.593758 
2512.560116  	109.559611 
2513.991774  	109.618836 
2515.423433  	109.621554 
2516.855091  	109.511330 
2518.286749  	109.519056 
2519.718407  	109.579653 
2521.150065  	109.700174 
2522.581724  	109.817540 
2524.013382  	109.745055 
2525.445040  	109.687578 
2526.876698  	109.718544 
2528.308356  	109.732321 
2529.740014  	109.708203 
2531.171673  	109.609768 
2532.603331  	109.636445 
2534.034989  	109.713776 
2535.466647  	109.644546 
2536.898305  	109.744009 
2538.329964  	109.885905 
2539.761622  	109.782594 
2541.193280  	109.762726 
2542.624938  	109.822219 
2544.056596  	109.784616 
2545.488254  	109.760253 
2546.919913  	109.772500 
2548.351571  	109.864184 
2549.783229  	109.903308 
2551.214887  	109.835245 
2552.646545  	109.911459 
2554.078204  	109.987384 
2555.509862  	109.923260 
2556.941520  	109.867909 
2558.373178  	109.826186 
2559.804836  	109.857467 
2561.236495  	109.833411 
2562.668153  	109.727809 
2564.099811  	109.842711 
2565.531469  	109.877841 
2566.963127  	109.685087 
2568.394785  	109.705793 
2569.826444  	109.811543 
2571.258102  	109.834330 
2572.689760  	109.865489 
2574.121418  	109.784756 
2575.553076  	109.736890 
2576.984735  	109.776299 
2578.416393  	109.760575 
2579.848051  	109.796882 
2581.279709  	109.786666 
2582.711367  	109.724783 
2584.143026  	109.830977 
2585.574684  	109.919353 
2587.006342  	109.844232 
2588.438000  	109.722549 
2589.869658  	109.661089 
2591.301316  	109.722822 
2592.732975  	109.748451 
2594.164633  	109.736106 
2595.596291  	109.826490 
2597.027949  	109.838110 
2598.459607  	109.781466 
2599.891266  	109.843791 
2601.322924  	109.917437 
2602.754582  	109.919256 
2604.186240  	109.867701 
2605.617898  	109.808666 
2607.049556  	109.805654 
2608.481215  	109.807548 
2609.912873  	109.798525 
2611.344531  	109.794424 
2612.776189  	109.821300 
2614.207847  	109.906794 
2615.639506  	109.918956 
2617.071164  	109.875201 
2618.502822  	109.897633 
2619.934480  	109.883944 
2621.366138  	109.854142 
2622.797797  	109.898528 
2624.229455  	109.945189 
2625.661113  	109.960340 
2627.092771  	109.940627 
2628.524429  	109.959441 
2629.956087  	110.013545 
2631.387746  	109.965507 
2632.819404  	109.949148 
2634.251062  	110.031021 
2635.682720  	110.053122 
2637.114378  	110.058645 
2638.546037  	110.029045 
2639.977695  	109.961618 
2641.409353  	109.993259 
2642.841011  	109.998846 
2644.272669  	109.940073 
2645.704328  	109.918983 
2647.135986  	109.874225 
2648.567644  	109.895497 
2649.999302  	109.989950 
2651.430960  	109.997105 
2652.862618  	109.979308 
2654.294277  	109.946439 
2655.725935  	109.891842 
2657.157593  	109.915154 
2658.589251  	109.939821 
2660.020909  	109.929484 
2661.452568  	109.902078 
2662.884226  	109.837010 
2664.315884  	109.848275 
2665.747542  	109.889443 
2667.179200  	109.844752 
2668.610858  	109.818498 
2670.042517  	109.824696 
2671.474175  	109.841590 
2672.905833  	109.873393 
2674.337491  	109.853612 
2675.769149  	109.869912 
2677.200808  	109.935124 
2678.632466  	109.923922 
2680.064124  	109.886338 
2681.495782  	109.841726 
2682.927440  	109.797677 
2684.359099  	109.834148 
2685.790757  	109.881089 
2687.222415  	109.888939 
2688.654073  	109.875198 
2690.085731  	109.840313 
2691.517389  	109.839502 
2692.949048  	109.834217 
2694.380706  	109.802320 
2695.812364  	109.815166 
2697.244022  	109.845083 
2698.675680  	109.879960 
2700.107339  	109.892908 
2701.538997  	109.848054 
2702.970655  	109.838121 
2704.402313  	109.831742 
2705.833971  	109.779832 
2707.265630  	109.761520 
2708.697288  	109.747332 
2710.128946  	109.741993 
2711.560604  	109.741596 
2712.992262  	109.675739 
2714.423920  	109.671972 
2715.855579  	109.743209 
2717.287237  	109.754144 
2718.718895  	109.762539 
2720.150553  	109.774495 
2721.582211  	109.775599 
2723.013870  	109.820437 
2724.445528  	109.825049 
2725.877186  	109.773626 
2727.308844  	109.734126 
2728.740502  	109.720383 
2730.172160  	109.744832 
2731.603819  	109.735463 
2733.035477  	109.712372 
2734.467135  	109.756809 
2735.898793  	109.763940 
2737.330451  	109.741323 
2738.762110  	109.767265 
2740.193768  	109.762754 
2741.625426  	109.731390 
2743.057084  	109.734196 
2744.488742  	109.793005 
2745.920401  	109.847912 
2747.352059  	109.800012 
2748.783717  	109.790942 
2750.215375  	109.851775 
2751.647033  	109.791065 
2753.078691  	109.739612 
2754.510350  	109.779612 
2755.942008  	109.747480 
2757.373666  	109.707889 
2758.805324  	109.696287 
2760.236982  	109.659561 
2761.668641  	109.670202 
2763.100299  	109.677098 
2764.531957  	109.647820 
2765.963615  	109.668083 
2767.395273  	109.687758 
2768.826931  	109.641702 
2770.258590  	109.563523 
2771.690248  	109.519556 
2773.121906  	109.534242 
2774.553564  	109.548275 
2775.985222  	109.536702 
2777.416881  	109.493385 
2778.848539  	109.440875 
2780.280197  	109.467716 
2781.711855  	109.522160 
2783.143513  	109.521798 
2784.575172  	109.535923 
2786.006830  	109.586885 
2787.438488  	109.617482 
2788.870146  	109.612666 
2790.301804  	109.626174 
2791.733462  	109.653864 
2793.165121  	109.600153 
2794.596779  	109.547849 
2796.028437  	109.565911 
2797.460095  	109.526649 
2798.891753  	109.503439 
2800.323412  	109.561741 
2801.755070  	109.561186 
2803.186728  	109.531892 
2804.618386  	109.508851 
2806.050044  	109.475326 
2807.481703  	109.499257 
2808.913361  	109.520460 
2810.345019  	109.527473 
2811.776677  	109.549441 
2813.208335  	109.504858 
2814.639993  	109.484495 
2816.071652  	109.509344 
2817.503310  	109.469034 
2818.934968  	109.461855 
2820.366626  	109.475521 
2821.798284  	109.433411 
2823.229943  	109.426958 
2824.661601  	109.449391 
2826.093259  	109.501118 
2827.524917  	109.542179 
2828.956575  	109.453620 
2830.388233  	109.386124 
2831.819892  	109.424531 
2833.251550  	109.454139 
2834.683208  	109.473377 
2836.114866  	109.410668 
2837.546524  	109.285389 
2838.978183  	109.254450 
2840.409841  	109.227884 
2841.841499  	109.146272 
2843.273157  	109.070796 
2844.704815  	108.958630 
2846.136474  	108.835010 
2847.568132  	108.723733 
2848.999790  	108.608149 
2850.431448  	108.518485 
2851.863106  	108.426282 
2853.294764  	108.362558 
2854.726423  	108.335061 
2856.158081  	108.233330 
2857.589739  	108.116100 
2859.021397  	108.038982 
2860.453055  	107.897933 
2861.884714  	107.673989 
2863.316372  	107.380022 
2864.748030  	107.031231 
2866.179688  	106.657994 
2867.611346  	106.254201 
2869.043005  	105.893542 
2870.474663  	105.614283 
2871.906321  	105.386402 
2873.337979  	105.301505 
2874.769637  	105.374572 
2876.201295  	105.504878 
2877.632954  	105.716149 
2879.064612  	106.003570 
2880.496270  	106.284886 
2881.927928  	106.530543 
2883.359586  	106.684059 
2884.791245  	106.747014 
2886.222903  	106.804371 
2887.654561  	106.823618 
2889.086219  	106.745242 
2890.517877  	106.662991 
2891.949535  	106.665946 
2893.381194  	106.709852 
2894.812852  	106.768851 
2896.244510  	106.861520 
2897.676168  	106.939679 
2899.107826  	106.968693 
2900.539485  	106.978503 
2901.971143  	106.961917 
2903.402801  	106.872506 
2904.834459  	106.705628 
2906.266117  	106.532427 
2907.697776  	106.401463 
2909.129434  	106.271369 
2910.561092  	106.124415 
2911.992750  	105.997110 
2913.424408  	105.919319 
2914.856066  	105.885145 
2916.287725  	105.864830 
2917.719383  	105.860587 
2919.151041  	105.820484 
2920.582699  	105.686789 
2922.014357  	105.564813 
2923.446016  	105.447804 
2924.877674  	105.185485 
2926.309332  	104.875945 
2927.740990  	104.653869 
2929.172648  	104.442621 
2930.604306  	104.205784 
2932.035965  	104.015458 
2933.467623  	103.925396 
2934.899281  	103.903472 
2936.330939  	103.919842 
2937.762597  	104.021358 
2939.194256  	104.162604 
2940.625914  	104.253396 
2942.057572  	104.323911 
2943.489230  	104.395680 
2944.920888  	104.451228 
2946.352547  	104.473932 
2947.784205  	104.434270 
2949.215863  	104.349766 
2950.647521  	104.192068 
2952.079179  	103.902680 
2953.510837  	103.516777 
2954.942496  	103.044804 
2956.374154  	102.439961 
2957.805812  	101.646130 
2959.237470  	100.705728 
2960.669128  	99.785654 
2962.100787  	98.889709 
2963.532445  	98.028441 
2964.964103  	97.380185 
2966.395761  	96.961331 
2967.827419  	96.785837 
2969.259078  	96.904710 
2970.690736  	97.171508 
2972.122394  	97.553095 
2973.554052  	98.138957 
2974.985710  	98.850712 
2976.417368  	99.604234 
2977.849027  	100.375807 
2979.280685  	101.159339 
2980.712343  	101.979073 
2982.144001  	102.763990 
2983.575659  	103.482627 
2985.007318  	104.167743 
2986.438976  	104.756946 
2987.870634  	105.283024 
2989.302292  	105.781350 
2990.733950  	106.215493 
2992.165608  	106.664684 
2993.597267  	107.060447 
2995.028925  	107.347109 
2996.460583  	107.682243 
2997.892241  	107.969007 
2999.323899  	108.152605 
3000.755558  	108.411516 
3002.187216  	108.649247 
3003.618874  	108.785709 
3005.050532  	108.926607 
3006.482190  	109.059049 
3007.913849  	109.169693 
3009.345507  	109.232242 
3010.777165  	109.264214 
3012.208823  	109.370669 
3013.640481  	109.487115 
3015.072139  	109.549102 
3016.503798  	109.573997 
3017.935456  	109.560796 
3019.367114  	109.593705 
3020.798772  	109.635915 
3022.230430  	109.608985 
3023.662089  	109.589172 
3025.093747  	109.555759 
3026.525405  	109.495478 
3027.957063  	109.410217 
3029.388721  	109.202556 
3030.820380  	108.962605 
3032.252038  	108.759973 
3033.683696  	108.524583 
3035.115354  	108.330499 
3036.547012  	108.171501 
3037.978670  	107.990977 
3039.410329  	107.858557 
3040.841987  	107.766058 
3042.273645  	107.731709 
3043.705303  	107.795141 
3045.136961  	107.896210 
3046.568620  	108.029357 
3048.000278  	108.156650 
3049.431936  	108.246918 
3050.863594  	108.348475 
3052.295252  	108.335975 
3053.726910  	108.169607 
3055.158569  	108.051426 
3056.590227  	108.008297 
3058.021885  	107.959446 
3059.453543  	107.951867 
3060.885201  	108.018025 
3062.316860  	108.091097 
3063.748518  	108.127794 
3065.180176  	108.194513 
3066.611834  	108.302371 
3068.043492  	108.403649 
3069.475151  	108.539124 
3070.906809  	108.663226 
3072.338467  	108.713508 
3073.770125  	108.785157 
3075.201783  	108.868531 
3076.633441  	108.893605 
3078.065100  	108.958119 
3079.496758  	109.119367 
3080.928416  	109.249345 
3082.360074  	109.266809 
3083.791732  	109.318572 
3085.223391  	109.461492 
3086.655049  	109.533102 
3088.086707  	109.566738 
3089.518365  	109.637394 
3090.950023  	109.657767 
3092.381682  	109.724554 
3093.813340  	109.860337 
3095.244998  	109.883512 
3096.676656  	109.851965 
3098.108314  	109.858070 
3099.539972  	109.850621 
3100.971631  	109.835715 
3102.403289  	109.803781 
3103.834947  	109.791585 
3105.266605  	109.856398 
3106.698263  	109.922846 
3108.129922  	109.939394 
3109.561580  	109.922763 
3110.993238  	109.905451 
3112.424896  	109.915573 
3113.856554  	109.929704 
3115.288212  	109.965846 
3116.719871  	110.012014 
3118.151529  	110.002177 
3119.583187  	109.997984 
3121.014845  	110.051283 
3122.446503  	110.095009 
3123.878162  	110.076862 
3125.309820  	110.047719 
3126.741478  	110.105004 
3128.173136  	110.180500 
3129.604794  	110.201905 
3131.036453  	110.263579 
3132.468111  	110.336505 
3133.899769  	110.381271 
3135.331427  	110.438069 
3136.763085  	110.443763 
3138.194743  	110.462465 
3139.626402  	110.528827 
3141.058060  	110.509292 
3142.489718  	110.467399 
3143.921376  	110.459293 
3145.353034  	110.466828 
3146.784693  	110.524500 
3148.216351  	110.513108 
3149.648009  	110.477605 
3151.079667  	110.522480 
3152.511325  	110.486733 
3153.942983  	110.467508 
3155.374642  	110.557336 
3156.806300  	110.547660 
3158.237958  	110.505813 
3159.669616  	110.523517 
3161.101274  	110.551594 
3162.532933  	110.615555 
3163.964591  	110.597318 
3165.396249  	110.549966 
3166.827907  	110.605269 
3168.259565  	110.586884 
3169.691224  	110.545821 
3171.122882  	110.583308 
3172.554540  	110.550552 
3173.986198  	110.547316 
3175.417856  	110.627741 
3176.849514  	110.648078 
3178.281173  	110.638023 
3179.712831  	110.608216 
3181.144489  	110.587168 
3182.576147  	110.620868 
3184.007805  	110.601633 
3185.439464  	110.547402 
3186.871122  	110.517394 
3188.302780  	110.469538 
3189.734438  	110.443310 
3191.166096  	110.451527 
3192.597755  	110.483077 
3194.029413  	110.532053 
3195.461071  	110.570780 
3196.892729  	110.657252 
3198.324387  	110.701573 
3199.756045  	110.576917 
3201.187704  	110.495165 
3202.619362  	110.585224 
3204.051020  	110.682342 
3205.482678  	110.669015 
3206.914336  	110.585651 
3208.345995  	110.564301 
3209.777653  	110.620233 
3211.209311  	110.659937 
3212.640969  	110.698446 
3214.072627  	110.756075 
3215.504285  	110.799133 
3216.935944  	110.772685 
3218.367602  	110.651583 
3219.799260  	110.583631 
3221.230918  	110.647116 
3222.662576  	110.711664 
3224.094235  	110.730777 
3225.525893  	110.755212 
3226.957551  	110.809504 
3228.389209  	110.833245 
3229.820867  	110.779449 
3231.252526  	110.752155 
3232.684184  	110.742219 
3234.115842  	110.705443 
3235.547500  	110.756453 
3236.979158  	110.795588 
3238.410816  	110.733974 
3239.842475  	110.769929 
3241.274133  	110.860172 
3242.705791  	110.825001 
3244.137449  	110.760365 
3245.569107  	110.765740 
3247.000766  	110.778158 
3248.432424  	110.758707 
3249.864082  	110.786519 
3251.295740  	110.841706 
3252.727398  	110.796604 
3254.159057  	110.761185 
3255.590715  	110.822468 
3257.022373  	110.822320 
3258.454031  	110.776434 
3259.885689  	110.775758 
3261.317347  	110.776192 
3262.749006  	110.754538 
3264.180664  	110.688756 
3265.612322  	110.640840 
3267.043980  	110.699331 
3268.475638  	110.790801 
3269.907297  	110.828057 
3271.338955  	110.778369 
3272.770613  	110.744258 
3274.202271  	110.834971 
3275.633929  	110.862811 
3277.065587  	110.781323 
3278.497246  	110.776198 
3279.928904  	110.794313 
3281.360562  	110.798262 
3282.792220  	110.793435 
3284.223878  	110.699540 
3285.655537  	110.651838 
3287.087195  	110.682481 
3288.518853  	110.662738 
3289.950511  	110.705555 
3291.382169  	110.794949 
3292.813828  	110.779431 
3294.245486  	110.743879 
3295.677144  	110.704731 
3297.108802  	110.644543 
3298.540460  	110.690875 
3299.972118  	110.771175 
3301.403777  	110.742977 
3302.835435  	110.716194 
3304.267093  	110.752130 
3305.698751  	110.742102 
3307.130409  	110.713155 
3308.562068  	110.761385 
3309.993726  	110.855252 
3311.425384  	110.924901 
3312.857042  	110.881695 
3314.288700  	110.767885 
3315.720359  	110.790889 
3317.152017  	110.873621 
3318.583675  	110.856943 
3320.015333  	110.865236 
3321.446991  	110.884675 
3322.878649  	110.848427 
3324.310308  	110.896173 
3325.741966  	110.996816 
3327.173624  	111.019490 
3328.605282  	110.961379 
3330.036940  	110.878610 
3331.468599  	110.855943 
3332.900257  	110.843040 
3334.331915  	110.815022 
3335.763573  	110.852917 
3337.195231  	110.853158 
3338.626889  	110.820685 
3340.058548  	110.888064 
3341.490206  	110.953829 
3342.921864  	110.968216 
3344.353522  	110.945159 
3345.785180  	110.886028 
3347.216839  	110.933510 
3348.648497  	111.014100 
3350.080155  	110.971367 
3351.511813  	110.934601 
3352.943471  	110.968848 
3354.375130  	111.017567 
3355.806788  	111.023981 
3357.238446  	110.957276 
3358.670104  	110.940598 
3360.101762  	110.981448 
3361.533420  	110.985449 
3362.965079  	110.986944 
3364.396737  	110.995196 
3365.828395  	111.039546 
3367.260053  	111.056394 
3368.691711  	110.931572 
3370.123370  	110.900233 
3371.555028  	111.045067 
3372.986686  	111.109394 
3374.418344  	111.071262 
3375.850002  	110.980592 
3377.281660  	110.903525 
3378.713319  	110.971740 
3380.144977  	111.036549 
3381.576635  	110.981191 
3383.008293  	110.921944 
3384.439951  	110.934781 
3385.871610  	111.042339 
3387.303268  	111.107725 
3388.734926  	111.048993 
3390.166584  	110.996637 
3391.598242  	110.938896 
3393.029901  	110.892802 
3394.461559  	110.940337 
3395.893217  	110.958223 
3397.324875  	110.940529 
3398.756533  	110.932153 
3400.188191  	110.866908 
3401.619850  	110.834218 
3403.051508  	110.869938 
3404.483166  	110.875511 
3405.914824  	110.868636 
3407.346482  	110.894621 
3408.778141  	110.955137 
3410.209799  	111.001882 
3411.641457  	111.007316 
3413.073115  	111.010383 
3414.504773  	110.981346 
3415.936432  	110.969826 
3417.368090  	111.034754 
3418.799748  	111.015915 
3420.231406  	110.897699 
3421.663064  	110.858300 
3423.094722  	110.893078 
3424.526381  	110.896666 
3425.958039  	110.879231 
3427.389697  	110.927630 
3428.821355  	110.984520 
3430.253013  	110.949059 
3431.684672  	110.937492 
3433.116330  	110.961630 
3434.547988  	110.938824 
3435.979646  	110.953919 
3437.411304  	110.971635 
3438.842962  	110.951925 
3440.274621  	110.944735 
3441.706279  	110.894249 
3443.137937  	110.887766 
3444.569595  	110.938760 
3446.001253  	110.919538 
3447.432912  	110.968603 
3448.864570  	111.041620 
3450.296228  	111.005134 
3451.727886  	111.019023 
3453.159544  	110.990398 
3454.591203  	110.896249 
3456.022861  	110.943453 
3457.454519  	110.946795 
3458.886177  	110.861909 
3460.317835  	110.937006 
3461.749493  	111.029187 
3463.181152  	110.977416 
3464.612810  	110.934672 
3466.044468  	110.980985 
3467.476126  	111.001195 
3468.907784  	110.932818 
3470.339443  	110.925558 
3471.771101  	110.968511 
3473.202759  	110.914202 
3474.634417  	110.880383 
3476.066075  	110.911790 
3477.497734  	110.874705 
3478.929392  	110.796712 
3480.361050  	110.766099 
3481.792708  	110.815442 
3483.224366  	110.840421 
3484.656024  	110.802313 
3486.087683  	110.865097 
3487.519341  	110.952716 
3488.950999  	110.937789 
3490.382657  	110.931303 
3491.814315  	110.928844 
3493.245974  	110.942066 
3494.677632  	110.956812 
3496.109290  	110.878312 
3497.540948  	110.862428 
3498.972606  	110.857799 
3500.404264  	110.724676 
3501.835923  	110.700376 
3503.267581  	110.724423 
3504.699239  	110.637748 
3506.130897  	110.686677 
3507.562555  	110.784676 
3508.994214  	110.754332 
3510.425872  	110.708020 
3511.857530  	110.717424 
3513.289188  	110.763215 
3514.720846  	110.751605 
3516.152505  	110.691388 
3517.584163  	110.709141 
3519.015821  	110.684608 
3520.447479  	110.581011 
3521.879137  	110.538442 
3523.310795  	110.518019 
3524.742454  	110.469783 
3526.174112  	110.363485 
3527.605770  	110.294460 
3529.037428  	110.411308 
3530.469086  	110.500608 
3531.900745  	110.524376 
3533.332403  	110.587930 
3534.764061  	110.557748 
3536.195719  	110.578747 
3537.627377  	110.657738 
3539.059035  	110.538613 
3540.490694  	110.518575 
3541.922352  	110.649044 
3543.354010  	110.589850 
3544.785668  	110.539257 
3546.217326  	110.648082 
3547.648985  	110.672474 
3549.080643  	110.629882 
3550.512301  	110.579088 
3551.943959  	110.536806 
3553.375617  	110.584254 
3554.807276  	110.669771 
3556.238934  	110.699963 
3557.670592  	110.659250 
3559.102250  	110.660874 
3560.533908  	110.751843 
3561.965566  	110.817627 
3563.397225  	110.831194 
3564.828883  	110.669345 
3566.260541  	110.342935 
3567.692199  	110.419712 
3569.123857  	110.804262 
3570.555516  	110.839929 
3571.987174  	110.784685 
3573.418832  	110.756185 
3574.850490  	110.674048 
3576.282148  	110.672053 
3577.713807  	110.795817 
3579.145465  	110.933562 
3580.577123  	110.985522 
3582.008781  	110.922569 
3583.440439  	110.813827 
3584.872097  	110.639814 
3586.303756  	110.441159 
3587.735414  	110.529847 
3589.167072  	110.889878 
3590.598730  	110.989557 
3592.030388  	110.918183 
3593.462047  	110.823582 
3594.893705  	110.721565 
3596.325363  	110.777280 
3597.757021  	110.908185 
3599.188679  	110.856187 
3600.620337  	110.855135 
3602.051996  	111.012201 
3603.483654  	110.990506 
3604.915312  	110.968735 
3606.346970  	111.019745 
3607.778628  	110.861464 
3609.210287  	110.861825 
3610.641945  	111.057289 
3612.073603  	110.892676 
3613.505261  	110.784455 
3614.936919  	110.995408 
3616.368578  	110.930990 
3617.800236  	110.661428 
3619.231894  	110.639392 
3620.663552  	110.951468 
3622.095210  	111.074684 
3623.526868  	110.987028 
3624.958527  	110.998285 
3626.390185  	110.858196 
3627.821843  	110.371234 
3629.253501  	110.286575 
3630.685159  	110.888343 
3632.116818  	110.892983 
3633.548476  	110.827331 
3634.980134  	110.953796 
3636.411792  	111.053200 
3637.843450  	111.131128 
3639.275109  	111.157337 
3640.706767  	111.030437 
3642.138425  	110.918866 
3643.570083  	111.006643 
3645.001741  	111.024656 
3646.433399  	110.725113 
3647.865058  	110.399690 
3649.296716  	110.298489 
3650.728374  	110.379517 
3652.160032  	110.942993 
3653.591690  	111.082228 
3655.023349  	110.794195 
3656.455007  	110.814225 
3657.886665  	111.070473 
3659.318323  	111.000462 
3660.749981  	110.976494 
3662.181639  	110.980754 
3663.613298  	110.936180 
3665.044956  	110.979162 
3666.476614  	110.937110 
3667.908272  	110.706216 
3669.339930  	110.386388 
3670.771589  	110.415037 
3672.203247  	110.752825 
3673.634905  	110.530524 
3675.066563  	110.138289 
3676.498221  	110.699550 
3677.929880  	110.975404 
3679.361538  	110.824686 
3680.793196  	110.885733 
3682.224854  	110.895599 
3683.656512  	110.902818 
3685.088170  	110.954696 
3686.519829  	110.763211 
3687.951487  	110.633277 
3689.383145  	110.837632 
3690.814803  	110.886534 
3692.246461  	111.010680 
3693.678120  	111.196322 
3695.109778  	111.089391 
3696.541436  	111.003665 
3697.973094  	111.086573 
3699.404752  	110.986423 
3700.836411  	110.816988 
3702.268069  	110.934137 
3703.699727  	111.108066 
3705.131385  	111.111141 
3706.563043  	111.050543 
3707.994701  	110.930021 
3709.426360  	110.830065 
3710.858018  	110.769248 
3712.289676  	110.814687 
3713.721334  	111.186594 
3715.152992  	111.356949 
3716.584651  	111.185305 
3718.016309  	111.111489 
3719.447967  	111.113173 
3720.879625  	110.901224 
3722.311283  	110.755260 
3723.742941  	110.850533 
3725.174600  	110.915031 
3726.606258  	110.959294 
3728.037916  	111.077711 
3729.469574  	111.065132 
3730.901232  	110.915969 
3732.332891  	110.800430 
3733.764549  	110.597628 
3735.196207  	110.288289 
3736.627865  	110.712331 
3738.059523  	111.222744 
3739.491182  	111.116408 
3740.922840  	111.156010 
3742.354498  	111.097931 
3743.786156  	110.647991 
3745.217814  	110.812735 
3746.649472  	111.137923 
3748.081131  	110.809537 
3749.512789  	110.648838 
3750.944447  	110.646241 
3752.376105  	110.777805 
3753.807763  	111.319908 
3755.239422  	111.354154 
3756.671080  	111.186826 
3758.102738  	111.240696 
3759.534396  	111.185049 
3760.966054  	111.270846 
3762.397712  	111.498363 
3763.829371  	111.330893 
3765.261029  	111.099151 
3766.692687  	111.167888 
3768.124345  	111.184166 
3769.556003  	111.140581 
3770.987662  	111.264558 
3772.419320  	111.345228 
3773.850978  	111.280640 
3775.282636  	111.290449 
3776.714294  	111.396252 
3778.145953  	111.318284 
3779.577611  	111.211671 
3781.009269  	111.334337 
3782.440927  	111.251571 
3783.872585  	111.051048 
3785.304243  	111.140262 
3786.735902  	111.299003 
3788.167560  	111.271621 
3789.599218  	111.225841 
3791.030876  	111.263750 
3792.462534  	111.370322 
3793.894193  	111.371342 
3795.325851  	111.196285 
3796.757509  	111.042348 
3798.189167  	111.034770 
3799.620825  	110.923773 
3801.052484  	110.706354 
3802.484142  	110.972261 
3803.915800  	111.287558 
3805.347458  	111.050453 
3806.779116  	110.943032 
3808.210774  	111.425605 
3809.642433  	111.447182 
3811.074091  	111.244795 
3812.505749  	111.283644 
3813.937407  	111.171376 
3815.369065  	110.926514 
3816.800724  	111.172342 
3818.232382  	111.240228 
3819.664040  	110.785768 
3821.095698  	110.580391 
3822.527356  	111.203910 
3823.959014  	111.342169 
3825.390673  	111.139169 
3826.822331  	111.147209 
3828.253989  	111.285208 
3829.685647  	111.213282 
3831.117305  	111.109041 
3832.548964  	111.142510 
3833.980622  	111.127351 
3835.412280  	110.983220 
3836.843938  	110.878074 
3838.275596  	110.828916 
3839.707255  	110.751172 
3841.138913  	110.780585 
3842.570571  	110.916862 
3844.002229  	111.120812 
3845.433887  	111.348260 
3846.865545  	111.349286 
3848.297204  	111.221672 
3849.728862  	111.197144 
3851.160520  	110.980183 
3852.592178  	110.406813 
3854.023836  	110.454191 
3855.455495  	111.165425 
3856.887153  	111.239641 
3858.318811  	111.280476 
3859.750469  	111.266675 
3861.182127  	111.182818 
3862.613786  	111.109336 
3864.045444  	110.862356 
3865.477102  	110.884396 
3866.908760  	111.236081 
3868.340418  	111.020533 
3869.772076  	110.689443 
3871.203735  	111.084740 
3872.635393  	111.080271 
3874.067051  	110.864785 
3875.498709  	111.187529 
3876.930367  	111.327187 
3878.362026  	111.093748 
3879.793684  	110.949589 
3881.225342  	111.066599 
3882.657000  	111.180165 
3884.088658  	110.970751 
3885.520316  	110.686457 
3886.951975  	111.042273 
3888.383633  	111.303207 
3889.815291  	111.090206 
3891.246949  	111.021093 
3892.678607  	111.235992 
3894.110266  	111.262975 
3895.541924  	111.240981 
3896.973582  	111.132797 
3898.405240  	110.854931 
3899.836898  	110.743055 
3901.268557  	110.884718 
3902.700215  	110.891303 
3904.131873  	110.876204 
3905.563531  	111.077931 
3906.995189  	111.236802 
3908.426847  	111.250542 
3909.858506  	111.259568 
3911.290164  	111.297257 
3912.721822  	111.294165 
3914.153480  	111.214054 
3915.585138  	111.088235 
3917.016797  	110.967535 
3918.448455  	110.915958 
3919.880113  	110.983684 
3921.311771  	111.123229 
3922.743429  	111.118760 
3924.175088  	111.044528 
3925.606746  	111.152800 
3927.038404  	111.228419 
3928.470062  	111.145513 
3929.901720  	111.079022 
3931.333378  	110.981047 
3932.765037  	110.939850 
3934.196695  	111.111882 
3935.628353  	111.182995 
3937.060011  	111.114103 
3938.491669  	111.109360 
3939.923328  	111.075438 
3941.354986  	110.949004 
3942.786644  	110.903004 
3944.218302  	111.027005 
3945.649960  	111.136817 
3947.081618  	111.141737 
3948.513277  	111.161525 
3949.944935  	111.188516 
3951.376593  	111.147786 
3952.808251  	111.172676 
3954.239909  	111.207690 
3955.671568  	111.137899 
3957.103226  	111.160231 
3958.534884  	111.279651 
3959.966542  	111.255613 
3961.398200  	111.150588 
3962.829859  	111.151054 
3964.261517  	111.225937 
3965.693175  	111.256796 
3967.124833  	111.249603 
3968.556491  	111.242917 
3969.988149  	111.211339 
3971.419808  	111.203444 
3972.851466  	111.219310 
3974.283124  	111.147285 
3975.714782  	111.071425 
3977.146440  	111.089687 
3978.578099  	111.135174 
3980.009757  	111.194312 
3981.441415  	111.171854 
3982.873073  	111.024378 
3984.304731  	110.989560 
3985.736389  	111.097327 
3987.168048  	111.124145 
3988.599706  	111.067176 
3990.031364  	111.063976 
3991.463022  	111.100178 
3992.894680  	111.115456 
3994.326339  	111.183447 
3995.757997  	111.280088 
3997.189655  	111.235355 
3998.621313  	111.120407 
4000.052971  	111.082909 