##TITLE=No Description
##DATA TYPE=INFRARED SPECTRUM
##XUNITS=1/CM
##YUNITS=%T
399.432634  	84.666262 
400.864292  	85.383916 
402.295950  	84.908603 
403.727608  	81.746183 
405.159267  	78.204407 
406.590925  	81.557945 
408.022583  	87.362979 
409.454241  	87.105737 
410.885899  	85.616522 
412.317558  	88.740814 
413.749216  	90.857356 
415.180874  	87.988634 
416.612532  	86.525550 
418.044190  	88.770271 
419.475848  	90.314510 
420.907507  	92.313910 
422.339165  	94.577339 
423.770823  	91.909557 
425.202481  	88.879361 
426.634139  	90.837924 
428.065798  	93.438748 
429.497456  	93.887399 
430.929114  	93.376891 
432.360772  	92.761559 
433.792430  	93.109438 
435.224089  	93.522715 
436.655747  	93.383311 
438.087405  	93.095425 
439.519063  	92.032697 
440.950721  	90.922535 
442.382379  	90.511332 
443.814038  	90.182973 
445.245696  	91.762247 
446.677354  	94.821038 
448.109012  	95.049063 
449.540670  	93.714739 
450.972329  	94.223106 
452.403987  	94.510090 
453.835645  	93.310207 
455.267303  	92.322389 
456.698961  	91.451509 
458.130619  	90.800207 
459.562278  	90.869546 
460.993936  	90.994350 
462.425594  	91.549785 
463.857252  	91.842369 
465.288910  	91.045702 
466.720569  	90.274202 
468.152227  	89.741851 
469.583885  	89.235348 
471.015543  	89.638768 
472.447201  	90.360927 
473.878860  	90.022479 
475.310518  	89.801978 
476.742176  	89.988487 
478.173834  	89.605486 
479.605492  	88.930855 
481.037150  	88.693562 
482.468809  	88.749135 
483.900467  	88.247647 
485.332125  	86.787837 
486.763783  	85.502305 
488.195441  	85.700101 
489.627100  	86.867249 
491.058758  	87.177908 
492.490416  	86.736142 
493.922074  	86.935663 
495.353732  	86.994870 
496.785391  	86.580393 
498.217049  	86.789605 
499.648707  	87.193322 
501.080365  	87.220784 
502.512023  	87.109209 
503.943681  	86.614095 
505.375340  	86.281922 
506.806998  	86.584092 
508.238656  	86.854408 
509.670314  	86.951334 
511.101972  	86.978251 
512.533631  	86.601947 
513.965289  	86.002633 
515.396947  	85.566113 
516.828605  	85.749488 
518.260263  	86.095025 
519.691921  	85.477730 
521.123580  	84.525460 
522.555238  	83.841552 
523.986896  	83.062970 
525.418554  	82.569629 
526.850212  	82.269182 
528.281871  	81.659249 
529.713529  	81.138591 
531.145187  	80.167230 
532.576845  	78.421006 
534.008503  	77.016832 
535.440162  	76.167616 
536.871820  	75.312608 
538.303478  	74.229670 
539.735136  	72.966445 
541.166794  	71.839071 
542.598452  	70.619722 
544.030111  	69.124986 
545.461769  	67.872235 
546.893427  	66.617858 
548.325085  	64.982299 
549.756743  	63.631260 
551.188402  	62.980024 
552.620060  	62.762410 
554.051718  	62.843108 
555.483376  	63.529659 
556.915034  	64.904443 
558.346692  	66.500630 
559.778351  	68.100026 
561.210009  	69.753860 
562.641667  	71.514547 
564.073325  	73.772642 
565.504983  	76.957982 
566.936642  	81.109480 
568.368300  	85.686683 
569.799958  	89.312334 
571.231616  	90.804385 
572.663274  	90.477613 
574.094933  	89.694906 
575.526591  	89.154920 
576.958249  	88.948592 
578.389907  	89.168982 
579.821565  	89.855845 
581.253223  	90.662285 
582.684882  	91.076209 
584.116540  	91.288068 
585.548198  	91.629517 
586.979856  	92.052541 
588.411514  	92.406342 
589.843173  	92.568650 
591.274831  	92.778069 
592.706489  	93.217759 
594.138147  	93.489448 
595.569805  	93.713600 
597.001464  	94.134979 
598.433122  	94.267136 
599.864780  	94.217252 
601.296438  	94.474933 
602.728096  	94.708908 
604.159754  	94.810232 
605.591413  	95.006503 
607.023071  	95.034550 
608.454729  	94.871481 
609.886387  	94.878504 
611.318045  	95.017894 
612.749704  	95.061410 
614.181362  	95.035164 
615.613020  	95.011612 
617.044678  	95.012392 
618.476336  	94.994128 
619.907994  	94.775292 
621.339653  	94.435163 
622.771311  	94.264621 
624.202969  	94.085078 
625.634627  	93.728534 
627.066285  	93.473290 
628.497944  	93.223257 
629.929602  	92.699413 
631.361260  	92.203888 
632.792918  	92.135367 
634.224576  	92.358281 
635.656235  	92.577715 
637.087893  	92.769558 
638.519551  	92.958831 
639.951209  	93.280417 
641.382867  	93.808157 
642.814525  	94.039827 
644.246184  	93.788416 
645.677842  	93.664432 
647.109500  	93.639051 
648.541158  	93.396875 
649.972816  	93.390719 
651.404475  	93.496053 
652.836133  	93.232561 
654.267791  	93.046495 
655.699449  	93.187813 
657.131107  	93.248959 
658.562766  	93.110100 
659.994424  	93.051360 
661.426082  	93.206648 
662.857740  	93.322872 
664.289398  	93.247043 
665.721056  	92.886832 
667.152715  	91.575821 
668.584373  	90.356809 
670.016031  	91.663506 
671.447689  	92.347636 
672.879347  	92.145537 
674.311006  	91.831405 
675.742664  	91.632342 
677.174322  	91.508547 
678.605980  	91.409421 
680.037638  	91.103374 
681.469296  	90.671987 
682.900955  	90.089810 
684.332613  	89.449480 
685.764271  	89.041645 
687.195929  	88.589722 
688.627587  	88.276824 
690.059246  	88.504187 
691.490904  	88.740662 
692.922562  	88.744322 
694.354220  	88.580765 
695.785878  	88.114656 
697.217537  	87.552697 
698.649195  	86.969737 
700.080853  	86.199345 
701.512511  	85.318764 
702.944169  	84.424798 
704.375827  	83.776070 
705.807486  	83.483079 
707.239144  	83.387562 
708.670802  	83.618918 
710.102460  	84.072654 
711.534118  	84.557693 
712.965777  	85.175695 
714.397435  	85.734923 
715.829093  	86.090866 
717.260751  	86.446101 
718.692409  	86.762691 
720.124067  	86.767454 
721.555726  	86.411088 
722.987384  	85.960078 
724.419042  	85.555485 
725.850700  	85.120896 
727.282358  	84.796688 
728.714017  	84.709208 
730.145675  	84.670687 
731.577333  	84.627034 
733.008991  	84.719566 
734.440649  	85.007620 
735.872308  	85.309141 
737.303966  	85.357547 
738.735624  	85.178699 
740.167282  	84.829524 
741.598940  	84.329714 
743.030598  	83.815597 
744.462257  	83.083179 
745.893915  	82.048474 
747.325573  	81.083899 
748.757231  	80.120432 
750.188889  	79.041235 
751.620548  	78.077654 
753.052206  	77.127825 
754.483864  	76.187507 
755.915522  	75.457544 
757.347180  	74.882651 
758.778839  	74.510990 
760.210497  	74.385166 
761.642155  	74.366089 
763.073813  	74.343439 
764.505471  	74.236608 
765.937129  	74.127791 
767.368788  	74.204410 
768.800446  	74.614384 
770.232104  	75.469062 
771.663762  	76.745279 
773.095420  	78.335299 
774.527079  	79.965018 
775.958737  	81.431768 
777.390395  	82.802578 
778.822053  	83.909637 
780.253711  	84.636731 
781.685369  	85.290478 
783.117028  	85.959931 
784.548686  	86.428944 
785.980344  	86.615091 
787.412002  	86.661115 
788.843660  	86.742135 
790.275319  	86.779129 
791.706977  	86.718156 
793.138635  	86.606529 
794.570293  	86.192010 
796.001951  	85.452178 
797.433610  	84.615561 
798.865268  	83.507567 
800.296926  	82.075796 
801.728584  	80.374152 
803.160242  	78.276846 
804.591900  	76.111874 
806.023559  	74.076863 
807.455217  	72.027442 
808.886875  	70.202743 
810.318533  	68.660634 
811.750191  	67.460330 
813.181850  	66.829465 
814.613508  	66.566361 
816.045166  	66.669405 
817.476824  	67.043282 
818.908482  	67.169927 
820.340141  	66.980606 
821.771799  	66.438731 
823.203457  	65.380599 
824.635115  	63.979491 
826.066773  	62.500129 
827.498431  	61.512919 
828.930090  	61.432296 
830.361748  	62.130082 
831.793406  	63.609505 
833.225064  	65.632184 
834.656722  	67.915681 
836.088381  	70.435429 
837.520039  	72.754258 
838.951697  	74.623246 
840.383355  	76.279282 
841.815013  	77.733651 
843.246671  	79.029683 
844.678330  	80.374457 
846.109988  	81.809918 
847.541646  	83.332671 
848.973304  	84.960225 
850.404962  	86.729919 
851.836621  	88.526018 
853.268279  	90.070661 
854.699937  	91.361995 
856.131595  	92.540996 
857.563253  	93.520488 
858.994912  	94.206688 
860.426570  	94.619213 
861.858228  	94.820755 
863.289886  	94.908508 
864.721544  	94.842232 
866.153202  	94.555564 
867.584861  	94.078447 
869.016519  	93.403978 
870.448177  	92.603933 
871.879835  	91.708785 
873.311493  	90.667416 
874.743152  	89.581207 
876.174810  	88.402797 
877.606468  	87.050515 
879.038126  	85.701864 
880.469784  	84.389149 
881.901443  	83.097182 
883.333101  	81.987986 
884.764759  	81.192467 
886.196417  	80.804261 
887.628075  	80.963125 
889.059733  	81.916511 
890.491392  	83.729506 
891.923050  	86.169860 
893.354708  	88.899987 
894.786366  	91.399003 
896.218024  	93.283487 
897.649683  	94.522209 
899.081341  	95.168238 
900.512999  	95.382204 
901.944657  	95.447775 
903.376315  	95.439769 
904.807973  	95.276807 
906.239632  	94.981526 
907.671290  	94.692572 
909.102948  	94.481987 
910.534606  	94.162443 
911.966264  	93.623377 
913.397923  	93.016800 
914.829581  	92.442944 
916.261239  	92.016146 
917.692897  	91.766519 
919.124555  	91.599987 
920.556214  	91.665910 
921.987872  	91.971533 
923.419530  	92.297780 
924.851188  	92.624556 
926.282846  	92.755367 
927.714504  	92.485619 
929.146163  	92.077396 
930.577821  	91.647744 
932.009479  	91.120675 
933.441137  	90.675355 
934.872795  	90.405173 
936.304454  	90.192136 
937.736112  	89.990022 
939.167770  	89.832442 
940.599428  	89.690526 
942.031086  	89.541971 
943.462744  	89.472290 
944.894403  	89.496704 
946.326061  	89.597040 
947.757719  	89.797413 
949.189377  	89.963669 
950.621035  	89.999842 
952.052694  	89.909537 
953.484352  	89.587176 
954.916010  	89.113472 
956.347668  	88.691611 
957.779326  	88.330769 
959.210985  	88.077183 
960.642643  	87.949165 
962.074301  	87.867694 
963.505959  	87.840518 
964.937617  	87.843580 
966.369275  	87.832544 
967.800934  	87.757954 
969.232592  	87.589669 
970.664250  	87.438697 
972.095908  	87.276452 
973.527566  	86.981800 
974.959225  	86.597065 
976.390883  	86.134329 
977.822541  	85.652561 
979.254199  	85.182718 
980.685857  	84.582479 
982.117516  	83.869140 
983.549174  	83.035411 
984.980832  	82.020639 
986.412490  	80.920217 
987.844148  	79.651584 
989.275806  	78.299895 
990.707465  	77.116798 
992.139123  	76.003203 
993.570781  	75.108284 
995.002439  	74.546614 
996.434097  	73.925423 
997.865756  	73.021460 
999.297414  	71.525000 
1000.729072  	69.179710 
1002.160730  	66.454478 
1003.592388  	63.937869 
1005.024046  	62.172658 
1006.455705  	61.351440 
1007.887363  	60.914346 
1009.319021  	60.110164 
1010.750679  	57.931666 
1012.182337  	54.346829 
1013.613996  	52.022748 
1015.045654  	54.026103 
1016.477312  	60.512455 
1017.908970  	68.774591 
1019.340628  	76.231904 
1020.772287  	81.978918 
1022.203945  	86.162012 
1023.635603  	89.337129 
1025.067261  	91.743845 
1026.498919  	93.238571 
1027.930577  	93.865641 
1029.362236  	93.967479 
1030.793894  	93.776981 
1032.225552  	93.411875 
1033.657210  	92.987301 
1035.088868  	92.465244 
1036.520527  	91.890260 
1037.952185  	91.371675 
1039.383843  	90.858227 
1040.815501  	90.371964 
1042.247159  	89.949079 
1043.678818  	89.475524 
1045.110476  	88.901653 
1046.542134  	88.352740 
1047.973792  	87.907243 
1049.405450  	87.416618 
1050.837108  	86.854879 
1052.268767  	86.374181 
1053.700425  	85.909714 
1055.132083  	85.411252 
1056.563741  	84.893088 
1057.995399  	84.261822 
1059.427058  	83.604681 
1060.858716  	82.987982 
1062.290374  	82.323663 
1063.722032  	81.591966 
1065.153690  	80.710685 
1066.585348  	79.672225 
1068.017007  	78.485543 
1069.448665  	77.045799 
1070.880323  	75.385157 
1072.311981  	73.359656 
1073.743639  	70.756999 
1075.175298  	67.452777 
1076.606956  	63.258531 
1078.038614  	59.269155 
1079.470272  	57.490820 
1080.901930  	58.676944 
1082.333589  	62.437936 
1083.765247  	67.479325 
1085.196905  	72.539847 
1086.628563  	76.806129 
1088.060221  	79.499680 
1089.491879  	80.610410 
1090.923538  	80.619554 
1092.355196  	79.758711 
1093.786854  	78.410964 
1095.218512  	76.788928 
1096.650170  	74.762919 
1098.081829  	72.663963 
1099.513487  	70.779401 
1100.945145  	69.416299 
1102.376803  	69.031467 
1103.808461  	69.234092 
1105.240120  	69.524029 
1106.671778  	69.710467 
1108.103436  	69.677581 
1109.535094  	69.770751 
1110.966752  	70.121063 
1112.398410  	70.572922 
1113.830069  	71.115540 
1115.261727  	71.473582 
1116.693385  	71.561282 
1118.125043  	71.493586 
1119.556701  	71.152773 
1120.988360  	70.649729 
1122.420018  	70.026561 
1123.851676  	69.166246 
1125.283334  	68.187147 
1126.714992  	67.046230 
1128.146650  	65.849168 
1129.578309  	64.736983 
1131.009967  	63.475736 
1132.441625  	62.189406 
1133.873283  	60.904207 
1135.304941  	59.441043 
1136.736600  	58.032953 
1138.168258  	56.577225 
1139.599916  	55.010880 
1141.031574  	53.505929 
1142.463232  	51.869087 
1143.894891  	50.295545 
1145.326549  	48.848227 
1146.758207  	47.294168 
1148.189865  	45.905538 
1149.621523  	44.537299 
1151.053181  	43.145863 
1152.484840  	42.047335 
1153.916498  	40.982671 
1155.348156  	40.152041 
1156.779814  	39.725012 
1158.211472  	39.490785 
1159.643131  	39.903770 
1161.074789  	40.998485 
1162.506447  	42.722140 
1163.938105  	45.264646 
1165.369763  	48.227862 
1166.801421  	51.660010 
1168.233080  	55.300173 
1169.664738  	58.143780 
1171.096396  	59.724276 
1172.528054  	59.568321 
1173.959712  	57.535351 
1175.391371  	54.624138 
1176.823029  	51.702005 
1178.254687  	49.248153 
1179.686345  	47.383664 
1181.118003  	45.531350 
1182.549662  	43.735984 
1183.981320  	42.256343 
1185.412978  	41.217504 
1186.844636  	41.089110 
1188.276294  	41.614122 
1189.707952  	42.577232 
1191.139611  	44.041181 
1192.571269  	45.623504 
1194.002927  	47.487521 
1195.434585  	49.636664 
1196.866243  	51.801272 
1198.297902  	54.239963 
1199.729560  	56.750775 
1201.161218  	59.174470 
1202.592876  	61.584159 
1204.024534  	63.469349 
1205.456193  	64.474062 
1206.887851  	64.237714 
1208.319509  	62.395809 
1209.751167  	59.511343 
1211.182825  	56.241286 
1212.614483  	53.120687 
1214.046142  	50.892277 
1215.477800  	49.417212 
1216.909458  	48.585504 
1218.341116  	48.449324 
1219.772774  	48.573650 
1221.204433  	49.049840 
1222.636091  	49.759210 
1224.067749  	50.466405 
1225.499407  	51.450876 
1226.931065  	52.449144 
1228.362723  	53.420902 
1229.794382  	54.563339 
1231.226040  	55.558615 
1232.657698  	56.569550 
1234.089356  	57.666938 
1235.521014  	58.649637 
1236.952673  	59.732672 
1238.384331  	60.760170 
1239.815989  	61.705385 
1241.247647  	62.780433 
1242.679305  	63.761982 
1244.110964  	64.814934 
1245.542622  	66.040106 
1246.974280  	67.262541 
1248.405938  	68.755273 
1249.837596  	70.422543 
1251.269254  	72.147930 
1252.700913  	74.179350 
1254.132571  	76.341230 
1255.564229  	78.622001 
1256.995887  	81.115326 
1258.427545  	83.588329 
1259.859204  	86.047149 
1261.290862  	88.494550 
1262.722520  	90.767268 
1264.154178  	92.807135 
1265.585836  	94.560096 
1267.017495  	96.028269 
1268.449153  	97.255866 
1269.880811  	98.226850 
1271.312469  	98.975160 
1272.744127  	99.543091 
1274.175785  	99.886733 
1275.607444  	100.062042 
1277.039102  	100.143343 
1278.470760  	100.034764 
1279.902418  	99.746175 
1281.334076  	99.393950 
1282.765735  	98.969295 
1284.197393  	98.462367 
1285.629051  	97.928742 
1287.060709  	97.444978 
1288.492367  	97.038094 
1289.924025  	96.719268 
1291.355684  	96.584737 
1292.787342  	96.707916 
1294.219000  	97.096211 
1295.650658  	97.707009 
1297.082316  	98.470739 
1298.513975  	99.319098 
1299.945633  	100.161562 
1301.377291  	100.878943 
1302.808949  	101.438423 
1304.240607  	101.830076 
1305.672266  	101.904332 
1307.103924  	101.698775 
1308.535582  	101.453291 
1309.967240  	101.391955 
1311.398898  	101.687145 
1312.830556  	102.331077 
1314.262215  	103.172679 
1315.693873  	104.021461 
1317.125531  	104.647718 
1318.557189  	105.031818 
1319.988847  	105.343995 
1321.420506  	105.538118 
1322.852164  	105.650666 
1324.283822  	105.726100 
1325.715480  	105.731804 
1327.147138  	105.803327 
1328.578796  	105.867055 
1330.010455  	105.826316 
1331.442113  	105.825854 
1332.873771  	105.842837 
1334.305429  	105.858377 
1335.737087  	105.866928 
1337.168746  	105.781532 
1338.600404  	105.702881 
1340.032062  	105.660907 
1341.463720  	105.672186 
1342.895378  	105.750842 
1344.327037  	105.731173 
1345.758695  	105.686860 
1347.190353  	105.664111 
1348.622011  	105.533488 
1350.053669  	105.475160 
1351.485327  	105.434510 
1352.916986  	105.276150 
1354.348644  	105.158191 
1355.780302  	104.914107 
1357.211960  	104.498124 
1358.643618  	103.827628 
1360.075277  	102.410559 
1361.506935  	100.292351 
1362.938593  	98.014806 
1364.370251  	97.052611 
1365.801909  	97.846645 
1367.233568  	99.595130 
1368.665226  	101.591430 
1370.096884  	103.172461 
1371.528542  	104.049542 
1372.960200  	104.369825 
1374.391858  	104.565355 
1375.823517  	104.680273 
1377.255175  	104.647090 
1378.686833  	104.484759 
1380.118491  	104.117335 
1381.550149  	103.554638 
1382.981808  	102.564911 
1384.413466  	101.409464 
1385.845124  	100.604453 
1387.276782  	100.489913 
1388.708440  	101.162646 
1390.140098  	102.008090 
1391.571757  	102.856977 
1393.003415  	103.404111 
1394.435073  	103.546570 
1395.866731  	103.570961 
1397.298389  	103.444559 
1398.730048  	103.036991 
1400.161706  	102.541467 
1401.593364  	101.961151 
1403.025022  	101.100850 
1404.456680  	100.014958 
1405.888339  	98.775284 
1407.319997  	97.714662 
1408.751655  	97.187368 
1410.183313  	97.143368 
1411.614971  	97.779800 
1413.046629  	98.978310 
1414.478288  	100.265725 
1415.909946  	101.627065 
1417.341604  	102.699620 
1418.773262  	103.371185 
1420.204920  	104.127584 
1421.636579  	104.494363 
1423.068237  	104.596101 
1424.499895  	104.783159 
1425.931553  	104.875322 
1427.363211  	104.903981 
1428.794870  	104.900190 
1430.226528  	104.807224 
1431.658186  	104.832608 
1433.089844  	104.764326 
1434.521502  	104.579166 
1435.953160  	104.457689 
1437.384819  	104.194246 
1438.816477  	103.997054 
1440.248135  	103.756451 
1441.679793  	103.294741 
1443.111451  	102.957167 
1444.543110  	102.639336 
1445.974768  	102.255242 
1447.406426  	101.962787 
1448.838084  	101.555000 
1450.269742  	101.284933 
1451.701400  	101.210575 
1453.133059  	101.119306 
1454.564717  	101.067235 
1455.996375  	100.802142 
1457.428033  	99.925196 
1458.859691  	99.257446 
1460.291350  	98.536727 
1461.723008  	97.943464 
1463.154666  	97.533431 
1464.586324  	97.146379 
1466.017982  	97.330178 
1467.449641  	97.617424 
1468.881299  	97.907179 
1470.312957  	98.263613 
1471.744615  	98.236907 
1473.176273  	98.357647 
1474.607931  	98.688294 
1476.039590  	98.558946 
1477.471248  	98.550684 
1478.902906  	98.417178 
1480.334564  	97.936017 
1481.766222  	97.493020 
1483.197881  	96.759291 
1484.629539  	95.734507 
1486.061197  	94.593156 
1487.492855  	92.833085 
1488.924513  	90.912752 
1490.356172  	88.748434 
1491.787830  	85.821807 
1493.219488  	83.532240 
1494.651146  	81.178739 
1496.082804  	77.832914 
1497.514462  	74.779652 
1498.946121  	72.078743 
1500.377779  	69.760730 
1501.809437  	68.895983 
1503.241095  	68.655207 
1504.672753  	69.120287 
1506.104412  	71.137714 
1507.536070  	74.582039 
1508.967728  	78.849488 
1510.399386  	83.278954 
1511.831044  	87.598790 
1513.262702  	91.819463 
1514.694361  	95.028074 
1516.126019  	97.216300 
1517.557677  	99.621244 
1518.989335  	101.284242 
1520.420993  	101.930101 
1521.852652  	102.950624 
1523.284310  	103.738024 
1524.715968  	103.970838 
1526.147626  	104.485724 
1527.579284  	104.845153 
1529.010943  	105.066727 
1530.442601  	105.381917 
1531.874259  	105.371304 
1533.305917  	105.325037 
1534.737575  	105.654122 
1536.169233  	105.809336 
1537.600892  	105.889823 
1539.032550  	105.767972 
1540.464208  	105.563505 
1541.895866  	105.952395 
1543.327524  	106.043239 
1544.759183  	106.085671 
1546.190841  	106.327958 
1547.622499  	106.314706 
1549.054157  	106.201958 
1550.485815  	106.205783 
1551.917473  	106.245184 
1553.349132  	106.231199 
1554.780790  	106.144555 
1556.212448  	106.095471 
1557.644106  	105.959610 
1559.075764  	105.534155 
1560.507423  	106.093367 
1561.939081  	106.345594 
1563.370739  	106.341428 
1564.802397  	106.410399 
1566.234055  	106.471446 
1567.665714  	106.403748 
1569.097372  	106.316193 
1570.529030  	106.301854 
1571.960688  	106.376820 
1573.392346  	106.374752 
1574.824004  	106.225010 
1576.255663  	106.059094 
1577.687321  	106.046757 
1579.118979  	106.031110 
1580.550637  	105.934420 
1581.982295  	105.695202 
1583.413954  	105.356071 
1584.845612  	104.930878 
1586.277270  	104.422132 
1587.708928  	103.838705 
1589.140586  	103.168874 
1590.572245  	102.628916 
1592.003903  	102.247333 
1593.435561  	102.031303 
1594.867219  	102.066811 
1596.298877  	102.171127 
1597.730535  	102.240113 
1599.162194  	102.173809 
1600.593852  	101.972854 
1602.025510  	101.863451 
1603.457168  	101.914929 
1604.888826  	102.181663 
1606.320485  	102.619778 
1607.752143  	103.156128 
1609.183801  	103.797455 
1610.615459  	104.335858 
1612.047117  	104.768525 
1613.478775  	105.083418 
1614.910434  	105.212637 
1616.342092  	105.306550 
1617.773750  	105.538887 
1619.205408  	105.752664 
1620.637066  	105.857319 
1622.068725  	105.836262 
1623.500383  	105.865516 
1624.932041  	106.001403 
1626.363699  	105.990374 
1627.795357  	105.944050 
1629.227016  	105.955896 
1630.658674  	105.881591 
1632.090332  	105.738712 
1633.521990  	105.577767 
1634.953648  	105.339376 
1636.385306  	105.138150 
1637.816965  	105.154267 
1639.248623  	105.154911 
1640.680281  	105.212883 
1642.111939  	105.303568 
1643.543597  	105.292042 
1644.975256  	105.185618 
1646.406914  	105.059702 
1647.838572  	105.120616 
1649.270230  	105.262989 
1650.701888  	105.283992 
1652.133547  	105.165159 
1653.565205  	104.945765 
1654.996863  	105.204899 
1656.428521  	105.315871 
1657.860179  	105.331683 
1659.291837  	105.390387 
1660.723496  	105.416847 
1662.155154  	105.370644 
1663.586812  	105.389152 
1665.018470  	105.415984 
1666.450128  	105.394995 
1667.881787  	105.347697 
1669.313445  	105.300416 
1670.745103  	105.426764 
1672.176761  	105.527112 
1673.608419  	105.458856 
1675.040077  	105.429863 
1676.471736  	105.528523 
1677.903394  	105.531742 
1679.335052  	105.463746 
1680.766710  	105.384177 
1682.198368  	105.313656 
1683.630027  	105.137494 
1685.061685  	105.160296 
1686.493343  	105.307077 
1687.925001  	105.202402 
1689.356659  	105.104684 
1690.788318  	105.105684 
1692.219976  	104.999498 
1693.651634  	104.858987 
1695.083292  	104.661266 
1696.514950  	104.457101 
1697.946608  	104.433366 
1699.378267  	104.187902 
1700.809925  	103.948213 
1702.241583  	104.028148 
1703.673241  	103.775109 
1705.104899  	103.534739 
1706.536558  	103.426354 
1707.968216  	103.221745 
1709.399874  	103.134385 
1710.831532  	102.979486 
1712.263190  	102.712282 
1713.694849  	102.508275 
1715.126507  	102.094935 
1716.558165  	101.708500 
1717.989823  	101.515125 
1719.421481  	101.208382 
1720.853139  	101.061839 
1722.284798  	100.758750 
1723.716456  	100.294987 
1725.148114  	100.067227 
1726.579772  	99.689119 
1728.011430  	99.234307 
1729.443089  	98.874112 
1730.874747  	98.332952 
1732.306405  	98.048454 
1733.738063  	97.823798 
1735.169721  	97.189085 
1736.601379  	96.968825 
1738.033038  	96.541255 
1739.464696  	95.899109 
1740.896354  	95.437282 
1742.328012  	94.676354 
1743.759670  	93.908449 
1745.191329  	93.150721 
1746.622987  	92.018159 
1748.054645  	90.978057 
1749.486303  	89.695334 
1750.917961  	87.976597 
1752.349620  	86.287125 
1753.781278  	84.249325 
1755.212936  	82.173643 
1756.644594  	79.693834 
1758.076252  	76.274112 
1759.507910  	73.496219 
1760.939569  	70.853837 
1762.371227  	67.306465 
1763.802885  	64.852356 
1765.234543  	63.520753 
1766.666201  	62.342659 
1768.097860  	62.011964 
1769.529518  	62.244297 
1770.961176  	62.644705 
1772.392834  	63.970844 
1773.824492  	65.352777 
1775.256150  	66.807305 
1776.687809  	68.829137 
1778.119467  	70.560399 
1779.551125  	72.410911 
1780.982783  	74.697507 
1782.414441  	76.610618 
1783.846100  	78.807856 
1785.277758  	81.249411 
1786.709416  	83.294387 
1788.141074  	85.644174 
1789.572732  	87.815648 
1791.004391  	89.698780 
1792.436049  	92.435559 
1793.867707  	94.646960 
1795.299365  	96.315248 
1796.731023  	98.233797 
1798.162681  	99.461005 
1799.594340  	100.664678 
1801.025998  	102.027685 
1802.457656  	102.738169 
1803.889314  	103.593827 
1805.320972  	104.186821 
1806.752631  	104.523987 
1808.184289  	105.187103 
1809.615947  	105.398876 
1811.047605  	105.546973 
1812.479263  	105.923447 
1813.910922  	105.998508 
1815.342580  	106.367158 
1816.774238  	106.632509 
1818.205896  	106.569112 
1819.637554  	106.844740 
1821.069212  	106.869243 
1822.500871  	106.870230 
1823.932529  	107.074178 
1825.364187  	106.903686 
1826.795845  	107.058463 
1828.227503  	107.228280 
1829.659162  	107.027190 
1831.090820  	107.189958 
1832.522478  	107.182667 
1833.954136  	107.159961 
1835.385794  	107.383117 
1836.817452  	107.251500 
1838.249111  	107.278907 
1839.680769  	107.425810 
1841.112427  	107.287219 
1842.544085  	107.370066 
1843.975743  	107.298924 
1845.407402  	107.201674 
1846.839060  	107.456320 
1848.270718  	107.336825 
1849.702376  	107.325980 
1851.134034  	107.446649 
1852.565693  	107.309469 
1853.997351  	107.477454 
1855.429009  	107.500863 
1856.860667  	107.293024 
1858.292325  	107.402642 
1859.723983  	107.316249 
1861.155642  	107.356262 
1862.587300  	107.600765 
1864.018958  	107.446709 
1865.450616  	107.463001 
1866.882274  	107.421737 
1868.313933  	107.144394 
1869.745591  	107.432904 
1871.177249  	107.427860 
1872.608907  	107.279747 
1874.040565  	107.507779 
1875.472224  	107.435136 
1876.903882  	107.337705 
1878.335540  	107.379084 
1879.767198  	107.281091 
1881.198856  	107.380218 
1882.630514  	107.321436 
1884.062173  	107.192154 
1885.493831  	107.266377 
1886.925489  	107.027055 
1888.357147  	106.898350 
1889.788805  	106.909256 
1891.220464  	106.634666 
1892.652122  	106.619449 
1894.083780  	106.562939 
1895.515438  	106.440685 
1896.947096  	106.614295 
1898.378754  	106.577161 
1899.810413  	106.632110 
1901.242071  	106.800354 
1902.673729  	106.634234 
1904.105387  	106.667877 
1905.537045  	106.748628 
1906.968704  	106.829135 
1908.400362  	107.134081 
1909.832020  	106.979799 
1911.263678  	106.944005 
1912.695336  	107.295208 
1914.126995  	107.305420 
1915.558653  	107.529031 
1916.990311  	107.651896 
1918.421969  	107.305164 
1919.853627  	107.540094 
1921.285285  	107.600126 
1922.716944  	107.404502 
1924.148602  	107.644450 
1925.580260  	107.511827 
1927.011918  	107.425110 
1928.443576  	107.655016 
1929.875235  	107.557358 
1931.306893  	107.667954 
1932.738551  	107.797297 
1934.170209  	107.724713 
1935.601867  	107.863209 
1937.033525  	107.683144 
1938.465184  	107.561156 
1939.896842  	107.631440 
1941.328500  	107.373086 
1942.760158  	107.574793 
1944.191816  	107.832354 
1945.623475  	107.650264 
1947.055133  	107.713810 
1948.486791  	107.509517 
1949.918449  	107.338831 
1951.350107  	107.452015 
1952.781766  	107.305382 
1954.213424  	107.498405 
1955.645082  	107.515649 
1957.076740  	107.241235 
1958.508398  	107.659127 
1959.940056  	107.449819 
1961.371715  	106.825192 
1962.803373  	107.004315 
1964.235031  	106.900107 
1965.666689  	106.811138 
1967.098347  	106.964245 
1968.530006  	106.941985 
1969.961664  	107.165367 
1971.393322  	106.852345 
1972.824980  	106.729871 
1974.256638  	107.202536 
1975.688297  	106.711680 
1977.119955  	106.686384 
1978.551613  	107.382042 
1979.983271  	107.269311 
1981.414929  	107.106633 
1982.846587  	106.626756 
1984.278246  	106.486418 
1985.709904  	107.099601 
1987.141562  	106.863730 
1988.573220  	106.761776 
1990.004878  	107.240905 
1991.436537  	107.015722 
1992.868195  	107.172370 
1994.299853  	107.607971 
1995.731511  	107.619968 
1997.163169  	107.644953 
1998.594827  	107.121961 
2000.026486  	106.979604 
2001.458144  	107.319422 
2002.889802  	106.846469 
2004.321460  	106.735522 
2005.753118  	106.868306 
2007.184777  	106.660883 
2008.616435  	107.112296 
2010.048093  	106.973619 
2011.479751  	106.684112 
2012.911409  	107.222560 
2014.343068  	107.125546 
2015.774726  	107.158755 
2017.206384  	107.410311 
2018.638042  	107.150011 
2020.069700  	107.582925 
2021.501358  	107.404402 
2022.933017  	106.653515 
2024.364675  	106.899043 
2025.796333  	106.745615 
2027.227991  	106.642829 
2028.659649  	107.000881 
2030.091308  	106.693258 
2031.522966  	106.724801 
2032.954624  	106.549024 
2034.386282  	106.139744 
2035.817940  	106.708173 
2037.249599  	106.770771 
2038.681257  	106.581095 
2040.112915  	106.733464 
2041.544573  	106.313605 
2042.976231  	106.417108 
2044.407889  	106.769225 
2045.839548  	106.557244 
2047.271206  	106.715885 
2048.702864  	106.822659 
2050.134522  	106.846839 
2051.566180  	107.033591 
2052.997839  	106.827070 
2054.429497  	106.862103 
2055.861155  	107.033071 
2057.292813  	107.098463 
2058.724471  	107.680141 
2060.156129  	107.815371 
2061.587788  	107.428834 
2063.019446  	107.601452 
2064.451104  	107.772571 
2065.882762  	107.806838 
2067.314420  	107.801471 
2068.746079  	107.620928 
2070.177737  	107.775452 
2071.609395  	107.700050 
2073.041053  	107.359725 
2074.472711  	107.512413 
2075.904370  	107.564421 
2077.336028  	107.539096 
2078.767686  	107.791725 
2080.199344  	107.855496 
2081.631002  	107.852924 
2083.062660  	107.771990 
2084.494319  	107.716524 
2085.925977  	107.894966 
2087.357635  	107.777894 
2088.789293  	107.699252 
2090.220951  	107.845635 
2091.652610  	107.634195 
2093.084268  	107.544934 
2094.515926  	107.635105 
2095.947584  	107.722549 
2097.379242  	108.164512 
2098.810901  	108.172195 
2100.242559  	107.737935 
2101.674217  	107.731311 
2103.105875  	107.785012 
2104.537533  	107.933851 
2105.969191  	108.235728 
2107.400850  	108.187121 
2108.832508  	108.081030 
2110.264166  	108.010493 
2111.695824  	107.944674 
2113.127482  	107.959300 
2114.559141  	107.834704 
2115.990799  	107.930521 
2117.422457  	108.109516 
2118.854115  	107.992607 
2120.285773  	108.145844 
2121.717431  	108.318033 
2123.149090  	108.189149 
2124.580748  	108.181297 
2126.012406  	108.007420 
2127.444064  	107.915781 
2128.875722  	108.160815 
2130.307381  	108.095919 
2131.739039  	107.905753 
2133.170697  	107.715102 
2134.602355  	107.582863 
2136.034013  	107.861595 
2137.465672  	107.793242 
2138.897330  	107.680601 
2140.328988  	108.035993 
2141.760646  	107.887835 
2143.192304  	107.616184 
2144.623962  	107.371192 
2146.055621  	107.088128 
2147.487279  	107.786893 
2148.918937  	108.022806 
2150.350595  	107.103876 
2151.782253  	106.928012 
2153.213912  	107.140933 
2154.645570  	107.301980 
2156.077228  	107.427465 
2157.508886  	107.009424 
2158.940544  	107.198145 
2160.372202  	107.082223 
2161.803861  	106.278655 
2163.235519  	106.757053 
2164.667177  	107.350920 
2166.098835  	107.194788 
2167.530493  	107.073543 
2168.962152  	107.003204 
2170.393810  	107.312538 
2171.825468  	107.368716 
2173.257126  	107.089760 
2174.688784  	107.346661 
2176.120443  	107.119590 
2177.552101  	106.691135 
2178.983759  	106.926355 
2180.415417  	106.862201 
2181.847075  	106.977293 
2183.278733  	107.196630 
2184.710392  	106.693782 
2186.142050  	106.769015 
2187.573708  	107.101679 
2189.005366  	106.853468 
2190.437024  	107.001341 
2191.868683  	107.157777 
2193.300341  	106.926971 
2194.731999  	106.989726 
2196.163657  	107.108755 
2197.595315  	107.121357 
2199.026974  	107.135265 
2200.458632  	106.981771 
2201.890290  	106.849435 
2203.321948  	107.023250 
2204.753606  	107.342252 
2206.185264  	107.323202 
2207.616923  	107.171292 
2209.048581  	107.326897 
2210.480239  	107.395005 
2211.911897  	107.374632 
2213.343555  	107.291863 
2214.775214  	106.957023 
2216.206872  	107.015470 
2217.638530  	107.205151 
2219.070188  	107.040908 
2220.501846  	106.997414 
2221.933504  	106.825532 
2223.365163  	106.785867 
2224.796821  	107.118655 
2226.228479  	106.857584 
2227.660137  	106.695766 
2229.091795  	107.211368 
2230.523454  	107.326172 
2231.955112  	107.266660 
2233.386770  	107.263702 
2234.818428  	107.069137 
2236.250086  	107.244696 
2237.681745  	107.421007 
2239.113403  	107.274925 
2240.545061  	107.309986 
2241.976719  	107.366965 
2243.408377  	107.378399 
2244.840035  	107.368436 
2246.271694  	107.372905 
2247.703352  	107.623131 
2249.135010  	107.578534 
2250.566668  	107.324005 
2251.998326  	107.483675 
2253.429985  	107.532398 
2254.861643  	107.367049 
2256.293301  	107.362473 
2257.724959  	107.408398 
2259.156617  	107.635234 
2260.588276  	107.875140 
2262.019934  	107.908131 
2263.451592  	107.898698 
2264.883250  	107.783055 
2266.314908  	107.857032 
2267.746566  	108.129588 
2269.178225  	108.116679 
2270.609883  	108.029570 
2272.041541  	107.897583 
2273.473199  	107.738116 
2274.904857  	107.929116 
2276.336516  	108.059925 
2277.768174  	108.028683 
2279.199832  	108.188620 
2280.631490  	108.174299 
2282.063148  	108.001676 
2283.494806  	108.038319 
2284.926465  	108.189283 
2286.358123  	108.305540 
2287.789781  	108.287576 
2289.221439  	108.275263 
2290.653097  	108.271879 
2292.084756  	108.026948 
2293.516414  	107.876936 
2294.948072  	107.959806 
2296.379730  	107.889522 
2297.811388  	107.773845 
2299.243047  	107.750463 
2300.674705  	107.678925 
2302.106363  	107.543686 
2303.538021  	107.387416 
2304.969679  	107.332998 
2306.401337  	107.235037 
2307.832996  	106.954097 
2309.264654  	106.799403 
2310.696312  	106.719931 
2312.127970  	106.548310 
2313.559628  	106.460541 
2314.991287  	106.392098 
2316.422945  	106.308416 
2317.854603  	106.142345 
2319.286261  	105.731074 
2320.717919  	105.404037 
2322.149577  	105.272244 
2323.581236  	105.197893 
2325.012894  	105.276090 
2326.444552  	105.217849 
2327.876210  	104.880940 
2329.307868  	104.580866 
2330.739527  	104.435128 
2332.171185  	104.485000 
2333.602843  	104.632876 
2335.034501  	104.643227 
2336.466159  	104.529906 
2337.897818  	104.337258 
2339.329476  	104.238147 
2340.761134  	104.255902 
2342.192792  	104.143566 
2343.624450  	104.103844 
2345.056108  	104.264983 
2346.487767  	104.729776 
2347.919425  	105.568347 
2349.351083  	105.914099 
2350.782741  	105.320562 
2352.214399  	104.477071 
2353.646058  	103.949125 
2355.077716  	103.469421 
2356.509374  	103.109393 
2357.941032  	102.901677 
2359.372690  	102.764898 
2360.804349  	102.755224 
2362.236007  	102.709433 
2363.667665  	102.823422 
2365.099323  	103.163988 
2366.530981  	103.381332 
2367.962639  	103.570407 
2369.394298  	103.916508 
2370.825956  	104.401862 
2372.257614  	104.873185 
2373.689272  	105.203616 
2375.120930  	105.603048 
2376.552589  	106.032977 
2377.984247  	106.348252 
2379.415905  	106.731223 
2380.847563  	107.150444 
2382.279221  	107.530012 
2383.710879  	107.905614 
2385.142538  	108.130929 
2386.574196  	108.211980 
2388.005854  	108.217999 
2389.437512  	108.141377 
2390.869170  	108.148595 
2392.300829  	108.218272 
2393.732487  	108.196529 
2395.164145  	108.211435 
2396.595803  	108.284124 
2398.027461  	108.250106 
2399.459120  	108.173816 
2400.890778  	108.197330 
2402.322436  	108.216377 
2403.754094  	108.146870 
2405.185752  	108.158552 
2406.617410  	108.239871 
2408.049069  	108.211500 
2409.480727  	108.140893 
2410.912385  	108.100657 
2412.344043  	108.121033 
2413.775701  	108.201636 
2415.207360  	108.158370 
2416.639018  	108.094657 
2418.070676  	108.224614 
2419.502334  	108.335149 
2420.933992  	108.285578 
2422.365651  	108.191945 
2423.797309  	108.154767 
2425.228967  	108.214507 
2426.660625  	108.271316 
2428.092283  	108.315153 
2429.523941  	108.353977 
2430.955600  	108.294308 
2432.387258  	108.281042 
2433.818916  	108.332301 
2435.250574  	108.301740 
2436.682232  	108.322049 
2438.113891  	108.371863 
2439.545549  	108.370350 
2440.977207  	108.419035 
2442.408865  	108.395600 
2443.840523  	108.300303 
2445.272181  	108.284062 
2446.703840  	108.285541 
2448.135498  	108.342036 
2449.567156  	108.436541 
2450.998814  	108.434006 
2452.430472  	108.398969 
2453.862131  	108.377931 
2455.293789  	108.408094 
2456.725447  	108.483321 
2458.157105  	108.464005 
2459.588763  	108.416385 
2461.020422  	108.427741 
2462.452080  	108.461294 
2463.883738  	108.537056 
2465.315396  	108.558148 
2466.747054  	108.482541 
2468.178712  	108.395453 
2469.610371  	108.337309 
2471.042029  	108.414055 
2472.473687  	108.526002 
2473.905345  	108.498781 
2475.337003  	108.461490 
2476.768662  	108.429689 
2478.200320  	108.372441 
2479.631978  	108.402547 
2481.063636  	108.465668 
2482.495294  	108.490352 
2483.926953  	108.436118 
2485.358611  	108.356689 
2486.790269  	108.446161 
2488.221927  	108.569309 
2489.653585  	108.592952 
2491.085243  	108.634983 
2492.516902  	108.590545 
2493.948560  	108.519026 
2495.380218  	108.568852 
2496.811876  	108.545066 
2498.243534  	108.541392 
2499.675193  	108.732857 
2501.106851  	108.838371 
2502.538509  	108.781458 
2503.970167  	108.778315 
2505.401825  	108.775400 
2506.833483  	108.682502 
2508.265142  	108.697150 
2509.696800  	108.798336 
2511.128458  	108.707721 
2512.560116  	108.644825 
2513.991774  	108.795474 
2515.423433  	108.806864 
2516.855091  	108.718162 
2518.286749  	108.729082 
2519.718407  	108.714780 
2521.150065  	108.750224 
2522.581724  	108.795011 
2524.013382  	108.744314 
2525.445040  	108.768563 
2526.876698  	108.824742 
2528.308356  	108.889738 
2529.740014  	108.949820 
2531.171673  	108.832125 
2532.603331  	108.773075 
2534.034989  	108.817781 
2535.466647  	108.764914 
2536.898305  	108.866415 
2538.329964  	109.002235 
2539.761622  	108.914778 
2541.193280  	108.889892 
2542.624938  	108.896234 
2544.056596  	108.815516 
2545.488254  	108.793827 
2546.919913  	108.823172 
2548.351571  	108.941845 
2549.783229  	109.032602 
2551.214887  	108.980420 
2552.646545  	109.014800 
2554.078204  	109.078448 
2555.509862  	109.064454 
2556.941520  	109.035725 
2558.373178  	108.914568 
2559.804836  	108.896471 
2561.236495  	109.015274 
2562.668153  	109.007333 
2564.099811  	109.015882 
2565.531469  	109.008902 
2566.963127  	108.865962 
2568.394785  	108.878337 
2569.826444  	108.979831 
2571.258102  	108.979640 
2572.689760  	108.972242 
2574.121418  	108.919315 
2575.553076  	108.892680 
2576.984735  	108.954950 
2578.416393  	108.982327 
2579.848051  	109.027146 
2581.279709  	109.052706 
2582.711367  	108.980732 
2584.143026  	108.984725 
2585.574684  	109.056246 
2587.006342  	109.000265 
2588.438000  	108.866709 
2589.869658  	108.876178 
2591.301316  	108.988899 
2592.732975  	108.969456 
2594.164633  	108.919700 
2595.596291  	108.981096 
2597.027949  	108.983679 
2598.459607  	108.961166 
2599.891266  	109.061115 
2601.322924  	109.158474 
2602.754582  	109.126418 
2604.186240  	109.027563 
2605.617898  	109.012362 
2607.049556  	109.061132 
2608.481215  	109.041121 
2609.912873  	109.018772 
2611.344531  	109.048406 
2612.776189  	109.077441 
2614.207847  	109.105436 
2615.639506  	109.114486 
2617.071164  	109.120432 
2618.502822  	109.097071 
2619.934480  	109.034726 
2621.366138  	109.075320 
2622.797797  	109.151388 
2624.229455  	109.177508 
2625.661113  	109.261937 
2627.092771  	109.299858 
2628.524429  	109.265932 
2629.956087  	109.267605 
2631.387746  	109.227151 
2632.819404  	109.244226 
2634.251062  	109.334485 
2635.682720  	109.292226 
2637.114378  	109.238630 
2638.546037  	109.251506 
2639.977695  	109.239595 
2641.409353  	109.274962 
2642.841011  	109.307039 
2644.272669  	109.277577 
2645.704328  	109.249960 
2647.135986  	109.243058 
2648.567644  	109.319797 
2649.999302  	109.370535 
2651.430960  	109.297129 
2652.862618  	109.301349 
2654.294277  	109.356607 
2655.725935  	109.325160 
2657.157593  	109.300737 
2658.589251  	109.285676 
2660.020909  	109.258738 
2661.452568  	109.228608 
2662.884226  	109.180347 
2664.315884  	109.207393 
2665.747542  	109.258868 
2667.179200  	109.226775 
2668.610858  	109.199559 
2670.042517  	109.199015 
2671.474175  	109.206951 
2672.905833  	109.210579 
2674.337491  	109.182124 
2675.769149  	109.227137 
2677.200808  	109.294345 
2678.632466  	109.271072 
2680.064124  	109.274763 
2681.495782  	109.260810 
2682.927440  	109.181338 
2684.359099  	109.202734 
2685.790757  	109.270136 
2687.222415  	109.273190 
2688.654073  	109.257648 
2690.085731  	109.233053 
2691.517389  	109.229027 
2692.949048  	109.242449 
2694.380706  	109.234329 
2695.812364  	109.218829 
2697.244022  	109.199692 
2698.675680  	109.223138 
2700.107339  	109.259337 
2701.538997  	109.221606 
2702.970655  	109.201603 
2704.402313  	109.227457 
2705.833971  	109.217315 
2707.265630  	109.186012 
2708.697288  	109.147492 
2710.128946  	109.140504 
2711.560604  	109.151702 
2712.992262  	109.110374 
2714.423920  	109.100135 
2715.855579  	109.120749 
2717.287237  	109.116452 
2718.718895  	109.178440 
2720.150553  	109.237659 
2721.582211  	109.215406 
2723.013870  	109.202331 
2724.445528  	109.173979 
2725.877186  	109.132391 
2727.308844  	109.134741 
2728.740502  	109.134194 
2730.172160  	109.135216 
2731.603819  	109.150316 
2733.035477  	109.159043 
2734.467135  	109.159916 
2735.898793  	109.143427 
2737.330451  	109.166886 
2738.762110  	109.208041 
2740.193768  	109.175100 
2741.625426  	109.146475 
2743.057084  	109.182580 
2744.488742  	109.243032 
2745.920401  	109.263458 
2747.352059  	109.195474 
2748.783717  	109.182164 
2750.215375  	109.250075 
2751.647033  	109.220742 
2753.078691  	109.174524 
2754.510350  	109.195397 
2755.942008  	109.189037 
2757.373666  	109.170606 
2758.805324  	109.132709 
2760.236982  	109.100419 
2761.668641  	109.144669 
2763.100299  	109.150547 
2764.531957  	109.094953 
2765.963615  	109.078410 
2767.395273  	109.074669 
2768.826931  	109.053194 
2770.258590  	109.005443 
2771.690248  	108.960828 
2773.121906  	108.967998 
2774.553564  	108.967473 
2775.985222  	108.938351 
2777.416881  	108.909144 
2778.848539  	108.893738 
2780.280197  	108.929529 
2781.711855  	108.955156 
2783.143513  	108.948710 
2784.575172  	108.979535 
2786.006830  	108.999133 
2787.438488  	109.009839 
2788.870146  	109.061619 
2790.301804  	109.104140 
2791.733462  	109.113609 
2793.165121  	109.063890 
2794.596779  	109.002118 
2796.028437  	109.011464 
2797.460095  	109.014593 
2798.891753  	109.030933 
2800.323412  	109.096376 
2801.755070  	109.089011 
2803.186728  	109.056388 
2804.618386  	109.055839 
2806.050044  	109.043868 
2807.481703  	109.050417 
2808.913361  	109.005362 
2810.345019  	108.944481 
2811.776677  	108.990952 
2813.208335  	109.012386 
2814.639993  	109.005248 
2816.071652  	109.046778 
2817.503310  	109.013347 
2818.934968  	108.953414 
2820.366626  	108.943253 
2821.798284  	108.931790 
2823.229943  	108.953506 
2824.661601  	108.976981 
2826.093259  	109.003396 
2827.524917  	109.047354 
2828.956575  	108.974252 
2830.388233  	108.881224 
2831.819892  	108.918626 
2833.251550  	108.964614 
2834.683208  	108.960524 
2836.114866  	108.896416 
2837.546524  	108.793544 
2838.978183  	108.776207 
2840.409841  	108.775973 
2841.841499  	108.692314 
2843.273157  	108.588573 
2844.704815  	108.472272 
2846.136474  	108.316543 
2847.568132  	108.112785 
2848.999790  	107.919362 
2850.431448  	107.844693 
2851.863106  	107.846045 
2853.294764  	107.878181 
2854.726423  	107.954215 
2856.158081  	107.975651 
2857.589739  	107.930703 
2859.021397  	107.868990 
2860.453055  	107.731925 
2861.884714  	107.532226 
2863.316372  	107.325383 
2864.748030  	107.097768 
2866.179688  	106.837339 
2867.611346  	106.561687 
2869.043005  	106.311238 
2870.474663  	106.087623 
2871.906321  	105.912242 
2873.337979  	105.875824 
2874.769637  	105.935461 
2876.201295  	105.997980 
2877.632954  	106.127027 
2879.064612  	106.338648 
2880.496270  	106.541551 
2881.927928  	106.688326 
2883.359586  	106.771464 
2884.791245  	106.831081 
2886.222903  	106.901713 
2887.654561  	106.944610 
2889.086219  	106.914418 
2890.517877  	106.846802 
2891.949535  	106.846427 
2893.381194  	106.895761 
2894.812852  	106.895462 
2896.244510  	106.917127 
2897.676168  	107.009264 
2899.107826  	107.051583 
2900.539485  	107.031389 
2901.971143  	107.005567 
2903.402801  	106.933918 
2904.834459  	106.804374 
2906.266117  	106.665468 
2907.697776  	106.545630 
2909.129434  	106.443551 
2910.561092  	106.319478 
2911.992750  	106.133577 
2913.424408  	105.910760 
2914.856066  	105.706560 
2916.287725  	105.568960 
2917.719383  	105.550925 
2919.151041  	105.628336 
2920.582699  	105.684033 
2922.014357  	105.670839 
2923.446016  	105.625275 
2924.877674  	105.534452 
2926.309332  	105.385140 
2927.740990  	105.245351 
2929.172648  	105.142618 
2930.604306  	105.002305 
2932.035965  	104.852220 
2933.467623  	104.811357 
2934.899281  	104.817247 
2936.330939  	104.792466 
2937.762597  	104.831543 
2939.194256  	104.935566 
2940.625914  	105.035411 
2942.057572  	105.137729 
2943.489230  	105.199962 
2944.920888  	105.234917 
2946.352547  	105.307871 
2947.784205  	105.321323 
2949.215863  	105.214887 
2950.647521  	105.077036 
2952.079179  	104.912036 
2953.510837  	104.659981 
2954.942496  	104.322196 
2956.374154  	103.884295 
2957.805812  	103.288586 
2959.237470  	102.624020 
2960.669128  	102.027350 
2962.100787  	101.405107 
2963.532445  	100.765967 
2964.964103  	100.297008 
2966.395761  	99.976699 
2967.827419  	99.812369 
2969.259078  	99.846703 
2970.690736  	99.925504 
2972.122394  	100.101551 
2973.554052  	100.533327 
2974.985710  	101.082953 
2976.417368  	101.629784 
2977.849027  	102.174359 
2979.280685  	102.699258 
2980.712343  	103.251580 
2982.144001  	103.807528 
2983.575659  	104.315120 
2985.007318  	104.802052 
2986.438976  	105.244267 
2987.870634  	105.677976 
2989.302292  	106.108547 
2990.733950  	106.454225 
2992.165608  	106.808021 
2993.597267  	107.154565 
2995.028925  	107.382332 
2996.460583  	107.614168 
2997.892241  	107.829685 
2999.323899  	107.959763 
3000.755558  	108.137042 
3002.187216  	108.330294 
3003.618874  	108.503873 
3005.050532  	108.679125 
3006.482190  	108.748826 
3007.913849  	108.810141 
3009.345507  	108.939684 
3010.777165  	108.980710 
3012.208823  	109.007801 
3013.640481  	109.133533 
3015.072139  	109.214986 
3016.503798  	109.209971 
3017.935456  	109.240108 
3019.367114  	109.321054 
3020.798772  	109.342625 
3022.230430  	109.311037 
3023.662089  	109.305234 
3025.093747  	109.275648 
3026.525405  	109.233309 
3027.957063  	109.192782 
3029.388721  	109.039356 
3030.820380  	108.828810 
3032.252038  	108.660130 
3033.683696  	108.508424 
3035.115354  	108.414999 
3036.547012  	108.337093 
3037.978670  	108.192814 
3039.410329  	108.045435 
3040.841987  	107.917865 
3042.273645  	107.855158 
3043.705303  	107.925173 
3045.136961  	108.029932 
3046.568620  	108.090704 
3048.000278  	108.137423 
3049.431936  	108.208528 
3050.863594  	108.299703 
3052.295252  	108.285642 
3053.726910  	108.165186 
3055.158569  	108.115444 
3056.590227  	108.116169 
3058.021885  	108.064524 
3059.453543  	108.030356 
3060.885201  	108.063870 
3062.316860  	108.111845 
3063.748518  	108.135987 
3065.180176  	108.162312 
3066.611834  	108.239011 
3068.043492  	108.354161 
3069.475151  	108.457554 
3070.906809  	108.533228 
3072.338467  	108.594678 
3073.770125  	108.666921 
3075.201783  	108.755499 
3076.633441  	108.808705 
3078.065100  	108.818062 
3079.496758  	108.876148 
3080.928416  	108.954312 
3082.360074  	108.963740 
3083.791732  	109.016690 
3085.223391  	109.132570 
3086.655049  	109.198578 
3088.086707  	109.271374 
3089.518365  	109.303331 
3090.950023  	109.255861 
3092.381682  	109.358197 
3093.813340  	109.539630 
3095.244998  	109.546906 
3096.676656  	109.472301 
3098.108314  	109.417694 
3099.539972  	109.382664 
3100.971631  	109.390895 
3102.403289  	109.409449 
3103.834947  	109.463422 
3105.266605  	109.535682 
3106.698263  	109.544728 
3108.129922  	109.521071 
3109.561580  	109.498259 
3110.993238  	109.520320 
3112.424896  	109.568592 
3113.856554  	109.544196 
3115.288212  	109.531669 
3116.719871  	109.549924 
3118.151529  	109.535550 
3119.583187  	109.601930 
3121.014845  	109.679979 
3122.446503  	109.679172 
3123.878162  	109.714581 
3125.309820  	109.745168 
3126.741478  	109.780181 
3128.173136  	109.828672 
3129.604794  	109.748808 
3131.036453  	109.727278 
3132.468111  	109.890070 
3133.899769  	110.007545 
3135.331427  	110.045122 
3136.763085  	110.035742 
3138.194743  	109.986168 
3139.626402  	109.991351 
3141.058060  	109.979238 
3142.489718  	109.912240 
3143.921376  	109.875998 
3145.353034  	109.907944 
3146.784693  	110.023033 
3148.216351  	110.068980 
3149.648009  	109.999709 
3151.079667  	109.992081 
3152.511325  	109.998287 
3153.942983  	109.997963 
3155.374642  	110.073828 
3156.806300  	110.114034 
3158.237958  	110.113744 
3159.669616  	110.112408 
3161.101274  	110.085636 
3162.532933  	110.111215 
3163.964591  	110.131151 
3165.396249  	110.110247 
3166.827907  	110.119990 
3168.259565  	110.077243 
3169.691224  	110.040856 
3171.122882  	110.091997 
3172.554540  	110.119406 
3173.986198  	110.162060 
3175.417856  	110.207345 
3176.849514  	110.168840 
3178.281173  	110.122349 
3179.712831  	110.059468 
3181.144489  	110.037027 
3182.576147  	110.128644 
3184.007805  	110.157262 
3185.439464  	110.106642 
3186.871122  	110.061532 
3188.302780  	109.987804 
3189.734438  	109.990343 
3191.166096  	110.062683 
3192.597755  	110.071604 
3194.029413  	110.073823 
3195.461071  	110.095355 
3196.892729  	110.132998 
3198.324387  	110.220164 
3199.756045  	110.243466 
3201.187704  	110.167215 
3202.619362  	110.135443 
3204.051020  	110.177063 
3205.482678  	110.169064 
3206.914336  	110.113148 
3208.345995  	110.138532 
3209.777653  	110.195264 
3211.209311  	110.189128 
3212.640969  	110.184343 
3214.072627  	110.188013 
3215.504285  	110.215920 
3216.935944  	110.273003 
3218.367602  	110.212824 
3219.799260  	110.086875 
3221.230918  	110.093129 
3222.662576  	110.219429 
3224.094235  	110.342836 
3225.525893  	110.330333 
3226.957551  	110.225320 
3228.389209  	110.205106 
3229.820867  	110.215345 
3231.252526  	110.202983 
3232.684184  	110.236409 
3234.115842  	110.251376 
3235.547500  	110.238356 
3236.979158  	110.251154 
3238.410816  	110.261121 
3239.842475  	110.275103 
3241.274133  	110.274898 
3242.705791  	110.222435 
3244.137449  	110.162294 
3245.569107  	110.160926 
3247.000766  	110.228129 
3248.432424  	110.253863 
3249.864082  	110.218220 
3251.295740  	110.250784 
3252.727398  	110.315881 
3254.159057  	110.315335 
3255.590715  	110.270130 
3257.022373  	110.213550 
3258.454031  	110.197058 
3259.885689  	110.222964 
3261.317347  	110.265742 
3262.749006  	110.293317 
3264.180664  	110.204570 
3265.612322  	110.127286 
3267.043980  	110.229631 
3268.475638  	110.315179 
3269.907297  	110.274753 
3271.338955  	110.207207 
3272.770613  	110.174886 
3274.202271  	110.240147 
3275.633929  	110.269843 
3277.065587  	110.184506 
3278.497246  	110.163684 
3279.928904  	110.166261 
3281.360562  	110.143770 
3282.792220  	110.195839 
3284.223878  	110.201432 
3285.655537  	110.123160 
3287.087195  	110.062234 
3288.518853  	110.013245 
3289.950511  	110.026426 
3291.382169  	110.057061 
3292.813828  	110.039707 
3294.245486  	110.051504 
3295.677144  	110.007320 
3297.108802  	109.942467 
3298.540460  	110.039749 
3299.972118  	110.098032 
3301.403777  	110.011500 
3302.835435  	110.022467 
3304.267093  	110.104560 
3305.698751  	110.119661 
3307.130409  	110.159341 
3308.562068  	110.243349 
3309.993726  	110.276596 
3311.425384  	110.289335 
3312.857042  	110.328417 
3314.288700  	110.316454 
3315.720359  	110.268709 
3317.152017  	110.294880 
3318.583675  	110.346897 
3320.015333  	110.360690 
3321.446991  	110.361673 
3322.878649  	110.335741 
3324.310308  	110.337825 
3325.741966  	110.411287 
3327.173624  	110.435698 
3328.605282  	110.401251 
3330.036940  	110.410737 
3331.468599  	110.415606 
3332.900257  	110.370860 
3334.331915  	110.361502 
3335.763573  	110.393060 
3337.195231  	110.390655 
3338.626889  	110.384663 
3340.058548  	110.421127 
3341.490206  	110.446400 
3342.921864  	110.428816 
3344.353522  	110.408278 
3345.785180  	110.418276 
3347.216839  	110.441216 
3348.648497  	110.436561 
3350.080155  	110.411420 
3351.511813  	110.394322 
3352.943471  	110.418537 
3354.375130  	110.498039 
3355.806788  	110.533562 
3357.238446  	110.476028 
3358.670104  	110.432271 
3360.101762  	110.451397 
3361.533420  	110.489329 
3362.965079  	110.457918 
3364.396737  	110.374389 
3365.828395  	110.415988 
3367.260053  	110.507110 
3368.691711  	110.474695 
3370.123370  	110.466113 
3371.555028  	110.522036 
3372.986686  	110.538192 
3374.418344  	110.540635 
3375.850002  	110.494043 
3377.281660  	110.455304 
3378.713319  	110.507946 
3380.144977  	110.516915 
3381.576635  	110.483874 
3383.008293  	110.466775 
3384.439951  	110.444062 
3385.871610  	110.513241 
3387.303268  	110.577927 
3388.734926  	110.521619 
3390.166584  	110.489753 
3391.598242  	110.450490 
3393.029901  	110.385660 
3394.461559  	110.433661 
3395.893217  	110.493768 
3397.324875  	110.510069 
3398.756533  	110.513542 
3400.188191  	110.435575 
3401.619850  	110.390662 
3403.051508  	110.459587 
3404.483166  	110.496184 
3405.914824  	110.476263 
3407.346482  	110.488338 
3408.778141  	110.542746 
3410.209799  	110.570445 
3411.641457  	110.548179 
3413.073115  	110.544579 
3414.504773  	110.553165 
3415.936432  	110.571776 
3417.368090  	110.617449 
3418.799748  	110.570703 
3420.231406  	110.456422 
3421.663064  	110.448499 
3423.094722  	110.485425 
3424.526381  	110.464235 
3425.958039  	110.467876 
3427.389697  	110.532031 
3428.821355  	110.555014 
3430.253013  	110.537209 
3431.684672  	110.570934 
3433.116330  	110.556182 
3434.547988  	110.463633 
3435.979646  	110.460832 
3437.411304  	110.483299 
3438.842962  	110.459285 
3440.274621  	110.449238 
3441.706279  	110.374132 
3443.137937  	110.342069 
3444.569595  	110.457128 
3446.001253  	110.508326 
3447.432912  	110.532207 
3448.864570  	110.604975 
3450.296228  	110.596593 
3451.727886  	110.576427 
3453.159544  	110.521770 
3454.591203  	110.382671 
3456.022861  	110.356840 
3457.454519  	110.422340 
3458.886177  	110.434000 
3460.317835  	110.440871 
3461.749493  	110.429261 
3463.181152  	110.381249 
3464.612810  	110.385028 
3466.044468  	110.462958 
3467.476126  	110.502850 
3468.907784  	110.436436 
3470.339443  	110.407462 
3471.771101  	110.401674 
3473.202759  	110.308384 
3474.634417  	110.326263 
3476.066075  	110.459340 
3477.497734  	110.466717 
3478.929392  	110.404178 
3480.361050  	110.319006 
3481.792708  	110.243443 
3483.224366  	110.289519 
3484.656024  	110.313590 
3486.087683  	110.290236 
3487.519341  	110.327264 
3488.950999  	110.316579 
3490.382657  	110.318274 
3491.814315  	110.429861 
3493.245974  	110.478961 
3494.677632  	110.442717 
3496.109290  	110.430357 
3497.540948  	110.416083 
3498.972606  	110.382103 
3500.404264  	110.361596 
3501.835923  	110.340486 
3503.267581  	110.284739 
3504.699239  	110.249522 
3506.130897  	110.294210 
3507.562555  	110.367495 
3508.994214  	110.417634 
3510.425872  	110.367660 
3511.857530  	110.233768 
3513.289188  	110.174556 
3514.720846  	110.195543 
3516.152505  	110.241567 
3517.584163  	110.307210 
3519.015821  	110.290820 
3520.447479  	110.187282 
3521.879137  	110.126245 
3523.310795  	110.158509 
3524.742454  	110.209293 
3526.174112  	110.104930 
3527.605770  	109.966122 
3529.037428  	110.039285 
3530.469086  	110.159717 
3531.900745  	110.220998 
3533.332403  	110.248876 
3534.764061  	110.164511 
3536.195719  	110.177209 
3537.627377  	110.300665 
3539.059035  	110.239051 
3540.490694  	110.227452 
3541.922352  	110.317961 
3543.354010  	110.187256 
3544.785668  	110.050362 
3546.217326  	110.140858 
3547.648985  	110.220296 
3549.080643  	110.242702 
3550.512301  	110.242662 
3551.943959  	110.206673 
3553.375617  	110.253843 
3554.807276  	110.369015 
3556.238934  	110.383149 
3557.670592  	110.291212 
3559.102250  	110.269450 
3560.533908  	110.341366 
3561.965566  	110.344521 
3563.397225  	110.280064 
3564.828883  	110.153725 
3566.260541  	109.995610 
3567.692199  	110.124601 
3569.123857  	110.360537 
3570.555516  	110.341673 
3571.987174  	110.364257 
3573.418832  	110.431297 
3574.850490  	110.334015 
3576.282148  	110.252306 
3577.713807  	110.378102 
3579.145465  	110.557988 
3580.577123  	110.593925 
3582.008781  	110.491899 
3583.440439  	110.399581 
3584.872097  	110.334027 
3586.303756  	110.248044 
3587.735414  	110.267286 
3589.167072  	110.452735 
3590.598730  	110.545027 
3592.030388  	110.543464 
3593.462047  	110.493013 
3594.893705  	110.362121 
3596.325363  	110.337488 
3597.757021  	110.465350 
3599.188679  	110.458349 
3600.620337  	110.424458 
3602.051996  	110.576209 
3603.483654  	110.608059 
3604.915312  	110.537055 
3606.346970  	110.558510 
3607.778628  	110.511414 
3609.210287  	110.554566 
3610.641945  	110.718964 
3612.073603  	110.560048 
3613.505261  	110.388331 
3614.936919  	110.554327 
3616.368578  	110.532204 
3617.800236  	110.328619 
3619.231894  	110.411443 
3620.663552  	110.707578 
3622.095210  	110.743410 
3623.526868  	110.651208 
3624.958527  	110.628991 
3626.390185  	110.503869 
3627.821843  	110.158248 
3629.253501  	109.987066 
3630.685159  	110.377515 
3632.116818  	110.546164 
3633.548476  	110.597747 
3634.980134  	110.628515 
3636.411792  	110.657262 
3637.843450  	110.735963 
3639.275109  	110.730261 
3640.706767  	110.627684 
3642.138425  	110.581004 
3643.570083  	110.618267 
3645.001741  	110.616983 
3646.433399  	110.471171 
3647.865058  	110.260655 
3649.296716  	110.105347 
3650.728374  	110.077037 
3652.160032  	110.421548 
3653.591690  	110.556131 
3655.023349  	110.387018 
3656.455007  	110.397398 
3657.886665  	110.645318 
3659.318323  	110.663573 
3660.749981  	110.652186 
3662.181639  	110.681387 
3663.613298  	110.681898 
3665.044956  	110.670667 
3666.476614  	110.580856 
3667.908272  	110.412942 
3669.339930  	110.220423 
3670.771589  	110.204809 
3672.203247  	110.375407 
3673.634905  	110.304017 
3675.066563  	110.236713 
3676.498221  	110.613551 
3677.929880  	110.616228 
3679.361538  	110.527440 
3680.793196  	110.627714 
3682.224854  	110.621608 
3683.656512  	110.621556 
3685.088170  	110.678292 
3686.519829  	110.565636 
3687.951487  	110.506827 
3689.383145  	110.658033 
3690.814803  	110.643435 
3692.246461  	110.645543 
3693.678120  	110.725091 
3695.109778  	110.704132 
3696.541436  	110.698826 
3697.973094  	110.678494 
3699.404752  	110.514923 
3700.836411  	110.440528 
3702.268069  	110.627038 
3703.699727  	110.705853 
3705.131385  	110.646136 
3706.563043  	110.665052 
3707.994701  	110.640345 
3709.426360  	110.524776 
3710.858018  	110.432411 
3712.289676  	110.502859 
3713.721334  	110.873088 
3715.152992  	111.039101 
3716.584651  	110.855059 
3718.016309  	110.726706 
3719.447967  	110.683128 
3720.879625  	110.518928 
3722.311283  	110.490085 
3723.742941  	110.585141 
3725.174600  	110.526505 
3726.606258  	110.518608 
3728.037916  	110.629936 
3729.469574  	110.657968 
3730.901232  	110.680887 
3732.332891  	110.725876 
3733.764549  	110.517275 
3735.196207  	110.219524 
3736.627865  	110.593586 
3738.059523  	111.084290 
3739.491182  	111.014596 
3740.922840  	110.964477 
3742.354498  	110.917900 
3743.786156  	110.672297 
3745.217814  	110.844283 
3746.649472  	111.036795 
3748.081131  	110.742640 
3749.512789  	110.609350 
3750.944447  	110.749565 
3752.376105  	110.868369 
3753.807763  	111.103436 
3755.239422  	111.085401 
3756.671080  	111.002050 
3758.102738  	111.048653 
3759.534396  	110.952061 
3760.966054  	110.943236 
3762.397712  	111.112700 
3763.829371  	111.035913 
3765.261029  	110.870516 
3766.692687  	110.882653 
3768.124345  	110.925826 
3769.556003  	110.974271 
3770.987662  	111.064339 
3772.419320  	111.123038 
3773.850978  	111.142470 
3775.282636  	111.109005 
3776.714294  	111.065871 
3778.145953  	110.970716 
3779.577611  	110.846668 
3781.009269  	110.901446 
3782.440927  	110.920455 
3783.872585  	110.814442 
3785.304243  	110.852218 
3786.735902  	110.995719 
3788.167560  	111.038509 
3789.599218  	111.036358 
3791.030876  	111.056289 
3792.462534  	111.119030 
3793.894193  	111.130947 
3795.325851  	111.016452 
3796.757509  	110.878553 
3798.189167  	110.830374 
3799.620825  	110.750330 
3801.052484  	110.634656 
3802.484142  	110.815754 
3803.915800  	110.961611 
3805.347458  	110.778026 
3806.779116  	110.754118 
3808.210774  	111.181486 
3809.642433  	111.237591 
3811.074091  	111.094840 
3812.505749  	111.081570 
3813.937407  	111.021875 
3815.369065  	110.995679 
3816.800724  	111.190784 
3818.232382  	111.009471 
3819.664040  	110.655063 
3821.095698  	110.698332 
3822.527356  	111.173790 
3823.959014  	111.148983 
3825.390673  	111.026501 
3826.822331  	111.087702 
3828.253989  	111.115093 
3829.685647  	110.971704 
3831.117305  	110.850021 
3832.548964  	110.850577 
3833.980622  	110.867471 
3835.412280  	110.828888 
3836.843938  	110.798399 
3838.275596  	110.805475 
3839.707255  	110.789201 
3841.138913  	110.819078 
3842.570571  	110.947889 
3844.002229  	111.064364 
3845.433887  	111.106210 
3846.865545  	111.101906 
3848.297204  	111.066414 
3849.728862  	110.990770 
3851.160520  	110.789671 
3852.592178  	110.482448 
3854.023836  	110.591984 
3855.455495  	111.032409 
3856.887153  	111.095245 
3858.318811  	111.168541 
3859.750469  	111.185482 
3861.182127  	111.063973 
3862.613786  	110.908989 
3864.045444  	110.790333 
3865.477102  	110.910159 
3866.908760  	111.107202 
3868.340418  	110.926611 
3869.772076  	110.713539 
3871.203735  	110.953192 
3872.635393  	110.983702 
3874.067051  	110.910425 
3875.498709  	111.096380 
3876.930367  	111.130174 
3878.362026  	110.976826 
3879.793684  	110.887931 
3881.225342  	110.958537 
3882.657000  	110.993923 
3884.088658  	110.809485 
3885.520316  	110.673689 
3886.951975  	111.000922 
3888.383633  	111.110362 
3889.815291  	110.906657 
3891.246949  	110.856122 
3892.678607  	111.042266 
3894.110266  	111.159888 
3895.541924  	111.184170 
3896.973582  	111.047704 
3898.405240  	110.861403 
3899.836898  	110.835936 
3901.268557  	110.836682 
3902.700215  	110.761361 
3904.131873  	110.743817 
3905.563531  	110.824222 
3906.995189  	110.993059 
3908.426847  	111.170077 
3909.858506  	111.229104 
3911.290164  	111.208767 
3912.721822  	111.204213 
3914.153480  	111.117430 
3915.585138  	110.939225 
3917.016797  	110.851129 
3918.448455  	110.905579 
3919.880113  	110.976739 
3921.311771  	111.039123 
3922.743429  	110.998939 
3924.175088  	110.908974 
3925.606746  	110.968397 
3927.038404  	111.050836 
3928.470062  	111.053124 
3929.901720  	111.088080 
3931.333378  	111.060981 
3932.765037  	110.981044 
3934.196695  	111.024047 
3935.628353  	111.082253 
3937.060011  	111.103851 
3938.491669  	111.125094 
3939.923328  	111.080028 
3941.354986  	111.011061 
3942.786644  	110.981885 
3944.218302  	111.003614 
3945.649960  	111.086038 
3947.081618  	111.151018 
3948.513277  	111.153265 
3949.944935  	111.159338 
3951.376593  	111.185474 
3952.808251  	111.179109 
3954.239909  	111.155873 
3955.671568  	111.189464 
3957.103226  	111.250407 
3958.534884  	111.245477 
3959.966542  	111.202001 
3961.398200  	111.143987 
3962.829859  	111.115289 
3964.261517  	111.176689 
3965.693175  	111.172649 
3967.124833  	111.103705 
3968.556491  	111.120914 
3969.988149  	111.083320 
3971.419808  	111.021619 
3972.851466  	111.105381 
3974.283124  	111.119043 
3975.714782  	111.037529 
3977.146440  	111.039180 
3978.578099  	111.043701 
3980.009757  	111.081251 
3981.441415  	111.139576 
3982.873073  	111.064788 
3984.304731  	111.015274 
3985.736389  	111.087928 
3987.168048  	111.115898 
3988.599706  	111.083804 
3990.031364  	111.069944 
3991.463022  	111.091423 
3992.894680  	111.118783 
3994.326339  	111.142270 
3995.757997  	111.198365 
3997.189655  	111.214941 
3998.621313  	111.137671 
4000.052971  	111.055734 