##TITLE=No Description
##DATA TYPE=INFRARED SPECTRUM
##XUNITS=1/CM
##YUNITS=Abs
399.432634  	0.018109 
400.864292  	0.039591 
402.295950  	0.047687 
403.727608  	0.061304 
405.159267  	0.069834 
406.590925  	0.042284 
408.022583  	0.025608 
409.454241  	0.043393 
410.885899  	0.058010 
412.317558  	0.044728 
413.749216  	0.022577 
415.180874  	0.030080 
416.612532  	0.044374 
418.044190  	0.024454 
419.475848  	0.003467 
420.907507  	0.009576 
422.339165  	0.016637 
423.770823  	0.039628 
425.202481  	0.049528 
426.634139  	0.029614 
428.065798  	0.012907 
429.497456  	0.011629 
430.929114  	0.016903 
432.360772  	0.022871 
433.792430  	0.026619 
435.224089  	0.029628 
436.655747  	0.028202 
438.087405  	0.027256 
439.519063  	0.026349 
440.950721  	0.017837 
442.382379  	0.022198 
443.814038  	0.044182 
445.245696  	0.041971 
446.677354  	0.020780 
448.109012  	0.017433 
449.540670  	0.026143 
450.972329  	0.029993 
452.403987  	0.032432 
453.835645  	0.031338 
455.267303  	0.027376 
456.698961  	0.025507 
458.130619  	0.024040 
459.562278  	0.021362 
460.993936  	0.018720 
462.425594  	0.018459 
463.857252  	0.027530 
465.288910  	0.036898 
466.720569  	0.035139 
468.152227  	0.034008 
469.583885  	0.037311 
471.015543  	0.032213 
472.447201  	0.028254 
473.878860  	0.032457 
475.310518  	0.032319 
476.742176  	0.033671 
478.173834  	0.038943 
479.605492  	0.041124 
481.037150  	0.043198 
482.468809  	0.042199 
483.900467  	0.038757 
485.332125  	0.044383 
486.763783  	0.054100 
488.195441  	0.058340 
489.627100  	0.057861 
491.058758  	0.056198 
492.490416  	0.056928 
493.922074  	0.054639 
495.353732  	0.049271 
496.785391  	0.049896 
498.217049  	0.052332 
499.648707  	0.050707 
501.080365  	0.050105 
502.512023  	0.050464 
503.943681  	0.050315 
505.375340  	0.050152 
506.806998  	0.048245 
508.238656  	0.048236 
509.670314  	0.050906 
511.101972  	0.051613 
512.533631  	0.051235 
513.965289  	0.051295 
515.396947  	0.051169 
516.828605  	0.051707 
518.260263  	0.052783 
519.691921  	0.054205 
521.123580  	0.055972 
522.555238  	0.058580 
523.986896  	0.063430 
525.418554  	0.068743 
526.850212  	0.071716 
528.281871  	0.073451 
529.713529  	0.075755 
531.145187  	0.079939 
532.576845  	0.085376 
534.008503  	0.090096 
535.440162  	0.094088 
536.871820  	0.097022 
538.303478  	0.100173 
539.735136  	0.106058 
541.166794  	0.113253 
542.598452  	0.119970 
544.030111  	0.126651 
545.461769  	0.133672 
546.893427  	0.141703 
548.325085  	0.150184 
549.756743  	0.157552 
551.188402  	0.161794 
552.620060  	0.161900 
554.051718  	0.160027 
555.483376  	0.155712 
556.915034  	0.147845 
558.346692  	0.139999 
559.778351  	0.133496 
561.210009  	0.125792 
562.641667  	0.116136 
564.073325  	0.104889 
565.504983  	0.090692 
566.936642  	0.072368 
568.368300  	0.053996 
569.799958  	0.041248 
571.231616  	0.035089 
572.663274  	0.035062 
574.094933  	0.038471 
575.526591  	0.041628 
576.958249  	0.043677 
578.389907  	0.043482 
579.821565  	0.040392 
581.253223  	0.037902 
582.684882  	0.036755 
584.116540  	0.034895 
585.548198  	0.034299 
586.979856  	0.033972 
588.411514  	0.031007 
589.843173  	0.028090 
591.274831  	0.026355 
592.706489  	0.024604 
594.138147  	0.024148 
595.569805  	0.023850 
597.001464  	0.022201 
598.433122  	0.021391 
599.864780  	0.021988 
601.296438  	0.022314 
602.728096  	0.022188 
604.159754  	0.021949 
605.591413  	0.020946 
607.023071  	0.019479 
608.454729  	0.019489 
609.886387  	0.020602 
611.318045  	0.020091 
612.749704  	0.018314 
614.181362  	0.017551 
615.613020  	0.018084 
617.044678  	0.018646 
618.476336  	0.018285 
619.907994  	0.018248 
621.339653  	0.019018 
622.771311  	0.019215 
624.202969  	0.020005 
625.634627  	0.021825 
627.066285  	0.022400 
628.497944  	0.023056 
629.929602  	0.025263 
631.361260  	0.027033 
632.792918  	0.027806 
634.224576  	0.027860 
635.656235  	0.026869 
637.087893  	0.025695 
638.519551  	0.024695 
639.951209  	0.023262 
641.382867  	0.021650 
642.814525  	0.020696 
644.246184  	0.021010 
645.677842  	0.021936 
647.109500  	0.022774 
648.541158  	0.024020 
649.972816  	0.025164 
651.404475  	0.026323 
652.836133  	0.028740 
654.267791  	0.030746 
655.699449  	0.029830 
657.131107  	0.027607 
658.562766  	0.026984 
659.994424  	0.027078 
661.426082  	0.026170 
662.857740  	0.025140 
664.289398  	0.025458 
665.721056  	0.026857 
667.152715  	0.029099 
668.584373  	0.030449 
670.016031  	0.028887 
671.447689  	0.028151 
672.879347  	0.028951 
674.311006  	0.030560 
675.742664  	0.031013 
677.174322  	0.030861 
678.605980  	0.031872 
680.037638  	0.032815 
681.469296  	0.033687 
682.900955  	0.036795 
684.332613  	0.040505 
685.764271  	0.042662 
687.195929  	0.044357 
688.627587  	0.044863 
690.059246  	0.043801 
691.490904  	0.043043 
692.922562  	0.042893 
694.354220  	0.043916 
695.785878  	0.046150 
697.217537  	0.048189 
698.649195  	0.050648 
700.080853  	0.054340 
701.512511  	0.058231 
702.944169  	0.061684 
704.375827  	0.064457 
705.807486  	0.066334 
707.239144  	0.066448 
708.670802  	0.064347 
710.102460  	0.061883 
711.534118  	0.059596 
712.965777  	0.057072 
714.397435  	0.055243 
715.829093  	0.053991 
717.260751  	0.052824 
718.692409  	0.052145 
720.124067  	0.052347 
721.555726  	0.053540 
722.987384  	0.055105 
724.419042  	0.056873 
725.850700  	0.058716 
727.282358  	0.059661 
728.714017  	0.060223 
730.145675  	0.060755 
731.577333  	0.060332 
733.008991  	0.059648 
734.440649  	0.058557 
735.872308  	0.056733 
737.303966  	0.056492 
738.735624  	0.057982 
740.167282  	0.059617 
741.598940  	0.061527 
743.030598  	0.063526 
744.462257  	0.066061 
745.893915  	0.069528 
747.325573  	0.072966 
748.757231  	0.077294 
750.188889  	0.082441 
751.620548  	0.086610 
753.052206  	0.090806 
754.483864  	0.095013 
755.915522  	0.097792 
757.347180  	0.099956 
758.778839  	0.101537 
760.210497  	0.102189 
761.642155  	0.102609 
763.073813  	0.102957 
764.505471  	0.103708 
765.937129  	0.104589 
767.368788  	0.104155 
768.800446  	0.102123 
770.232104  	0.098452 
771.663762  	0.092710 
773.095420  	0.085600 
774.527079  	0.078530 
775.958737  	0.071834 
777.390395  	0.065783 
778.822053  	0.061458 
780.253711  	0.058315 
781.685369  	0.055399 
783.117028  	0.053268 
784.548686  	0.051492 
785.980344  	0.049850 
787.412002  	0.049646 
788.843660  	0.049985 
790.275319  	0.049370 
791.706977  	0.048840 
793.138635  	0.049379 
794.570293  	0.051271 
796.001951  	0.054319 
797.433610  	0.057825 
798.865268  	0.062382 
800.296926  	0.068213 
801.728584  	0.075047 
803.160242  	0.083915 
804.591900  	0.093919 
806.023559  	0.103518 
807.455217  	0.112980 
808.886875  	0.121316 
810.318533  	0.128528 
811.750191  	0.135034 
813.181850  	0.138641 
814.613508  	0.139267 
816.045166  	0.138429 
817.476824  	0.136570 
818.908482  	0.135037 
820.340141  	0.135296 
821.771799  	0.138247 
823.203457  	0.144103 
824.635115  	0.151608 
826.066773  	0.159220 
827.498431  	0.164539 
828.930090  	0.165066 
830.361748  	0.160916 
831.793406  	0.153483 
833.225064  	0.143720 
834.656722  	0.131856 
836.088381  	0.119389 
837.520039  	0.108567 
838.951697  	0.099536 
840.383355  	0.091976 
841.815013  	0.085884 
843.246671  	0.080415 
844.678330  	0.074822 
846.109988  	0.068780 
847.541646  	0.062315 
848.973304  	0.055649 
850.404962  	0.048648 
851.836621  	0.041679 
853.268279  	0.035337 
854.699937  	0.029788 
856.131595  	0.025314 
857.563253  	0.021897 
858.994912  	0.019254 
860.426570  	0.017352 
861.858228  	0.016207 
863.289886  	0.015940 
864.721544  	0.016517 
866.153202  	0.017634 
867.584861  	0.019377 
869.016519  	0.021788 
870.448177  	0.024506 
871.879835  	0.027753 
873.311493  	0.031823 
874.743152  	0.036342 
876.174810  	0.041130 
877.606468  	0.046219 
879.038126  	0.051593 
880.469784  	0.057188 
881.901443  	0.062808 
883.333101  	0.068337 
884.764759  	0.072648 
886.196417  	0.074512 
887.628075  	0.074041 
889.059733  	0.070413 
890.491392  	0.062913 
891.923050  	0.052628 
893.354708  	0.041313 
894.786366  	0.031365 
896.218024  	0.023978 
897.649683  	0.018846 
899.081341  	0.016000 
900.512999  	0.014946 
901.944657  	0.014586 
903.376315  	0.014647 
904.807973  	0.015181 
906.239632  	0.016228 
907.671290  	0.017561 
909.102948  	0.018655 
910.534606  	0.019889 
911.966264  	0.021631 
913.397923  	0.023558 
914.829581  	0.025566 
916.261239  	0.027214 
917.692897  	0.028378 
919.124555  	0.029146 
920.556214  	0.028786 
921.987872  	0.027756 
923.419530  	0.026599 
924.851188  	0.024704 
926.282846  	0.023299 
927.714504  	0.023564 
929.146163  	0.024627 
930.577821  	0.026532 
932.009479  	0.029168 
933.441137  	0.031133 
934.872795  	0.032266 
936.304454  	0.033056 
937.736112  	0.033656 
939.167770  	0.034296 
940.599428  	0.035027 
942.031086  	0.035814 
943.462744  	0.036280 
944.894403  	0.036032 
946.326061  	0.035280 
947.757719  	0.034277 
949.189377  	0.033432 
950.621035  	0.033067 
952.052694  	0.033215 
953.484352  	0.034350 
954.916010  	0.036363 
956.347668  	0.038377 
957.779326  	0.040242 
959.210985  	0.041683 
960.642643  	0.042240 
962.074301  	0.042393 
963.505959  	0.042553 
964.937617  	0.042560 
966.369275  	0.042497 
967.800934  	0.042763 
969.232592  	0.043287 
970.664250  	0.043656 
972.095908  	0.044250 
973.527566  	0.045364 
974.959225  	0.046481 
976.390883  	0.047801 
977.822541  	0.049705 
979.254199  	0.051817 
980.685857  	0.054172 
982.117516  	0.057137 
983.549174  	0.060860 
984.980832  	0.065215 
986.412490  	0.070112 
987.844148  	0.075994 
989.275806  	0.082457 
990.707465  	0.088471 
992.139123  	0.093754 
993.570781  	0.097751 
995.002439  	0.100856 
996.434097  	0.104404 
997.865756  	0.109052 
999.297414  	0.116580 
1000.729072  	0.128219 
1002.160730  	0.142359 
1003.592388  	0.156367 
1005.024046  	0.166652 
1006.455705  	0.172025 
1007.887363  	0.174881 
1009.319021  	0.178019 
1010.750679  	0.187659 
1012.182337  	0.206356 
1013.613996  	0.219909 
1015.045654  	0.208313 
1016.477312  	0.171360 
1017.908970  	0.128185 
1019.340628  	0.092603 
1020.772287  	0.067068 
1022.203945  	0.049862 
1023.635603  	0.037526 
1025.067261  	0.028192 
1026.498919  	0.022676 
1027.930577  	0.020869 
1029.362236  	0.021280 
1030.793894  	0.023409 
1032.225552  	0.026793 
1033.657210  	0.030037 
1035.088868  	0.032088 
1036.520527  	0.032451 
1037.952185  	0.031883 
1039.383843  	0.031736 
1040.815501  	0.032138 
1042.247159  	0.032987 
1043.678818  	0.034516 
1045.110476  	0.036215 
1046.542134  	0.037726 
1047.973792  	0.039522 
1049.405450  	0.041727 
1050.837108  	0.043762 
1052.268767  	0.045534 
1053.700425  	0.047503 
1055.132083  	0.049611 
1056.563741  	0.051804 
1057.995399  	0.054219 
1059.427058  	0.056843 
1060.858716  	0.060048 
1062.290374  	0.063386 
1063.722032  	0.066264 
1065.153690  	0.069829 
1066.585348  	0.074583 
1068.017007  	0.080212 
1069.448665  	0.086948 
1070.880323  	0.094633 
1072.311981  	0.104210 
1073.743639  	0.116770 
1075.175298  	0.132831 
1076.606956  	0.154074 
1078.038614  	0.175982 
1079.470272  	0.187235 
1080.901930  	0.182130 
1082.333589  	0.162603 
1083.765247  	0.136698 
1085.196905  	0.111876 
1086.628563  	0.091984 
1088.060221  	0.079627 
1089.491879  	0.074582 
1090.923538  	0.074895 
1092.355196  	0.078608 
1093.786854  	0.083812 
1095.218512  	0.090679 
1096.650170  	0.099862 
1098.081829  	0.109513 
1099.513487  	0.118491 
1100.945145  	0.125030 
1102.376803  	0.126691 
1103.808461  	0.125409 
1105.240120  	0.123637 
1106.671778  	0.122894 
1108.103436  	0.123736 
1109.535094  	0.123689 
1110.966752  	0.121835 
1112.398410  	0.119214 
1113.830069  	0.116500 
1115.261727  	0.114986 
1116.693385  	0.114388 
1118.125043  	0.114337 
1119.556701  	0.115770 
1120.988360  	0.118174 
1122.420018  	0.121430 
1123.851676  	0.125673 
1125.283334  	0.130178 
1126.714992  	0.135504 
1128.146650  	0.141152 
1129.578309  	0.146768 
1131.009967  	0.153429 
1132.441625  	0.159934 
1133.873283  	0.166534 
1135.304941  	0.174011 
1136.736600  	0.180966 
1138.168258  	0.189066 
1139.599916  	0.198347 
1141.031574  	0.207133 
1142.463232  	0.217301 
1143.894891  	0.227466 
1145.326549  	0.236861 
1146.758207  	0.247635 
1148.189865  	0.257877 
1149.621523  	0.268069 
1151.053181  	0.278521 
1152.484840  	0.287069 
1153.916498  	0.295832 
1155.348156  	0.303148 
1156.779814  	0.307326 
1158.211472  	0.309839 
1159.643131  	0.306925 
1161.074789  	0.298757 
1162.506447  	0.286466 
1163.938105  	0.268630 
1165.369763  	0.248177 
1166.801421  	0.225546 
1168.233080  	0.203156 
1169.664738  	0.186480 
1171.096396  	0.177039 
1172.528054  	0.177401 
1173.959712  	0.188731 
1175.391371  	0.205762 
1176.823029  	0.223700 
1178.254687  	0.239291 
1179.686345  	0.251652 
1181.118003  	0.264749 
1182.549662  	0.277781 
1183.981320  	0.288890 
1185.412978  	0.297046 
1186.844636  	0.298014 
1188.276294  	0.294338 
1189.707952  	0.287809 
1191.139611  	0.277071 
1192.571269  	0.265623 
1194.002927  	0.252969 
1195.434585  	0.238543 
1196.866243  	0.224305 
1198.297902  	0.209053 
1199.729560  	0.193937 
1201.161218  	0.179846 
1202.592876  	0.166425 
1204.024534  	0.156270 
1205.456193  	0.150752 
1206.887851  	0.151651 
1208.319509  	0.161335 
1209.751167  	0.177193 
1211.182825  	0.196030 
1212.614483  	0.215149 
1214.046142  	0.229562 
1215.477800  	0.239533 
1216.909458  	0.245690 
1218.341116  	0.247413 
1219.772774  	0.247284 
1221.204433  	0.244460 
1222.636091  	0.239708 
1224.067749  	0.234999 
1225.499407  	0.228836 
1226.931065  	0.222783 
1228.362723  	0.216874 
1229.794382  	0.209911 
1231.226040  	0.203833 
1232.657698  	0.197530 
1234.089356  	0.190882 
1235.521014  	0.185360 
1236.952673  	0.179382 
1238.384331  	0.173574 
1239.815989  	0.168251 
1241.247647  	0.162346 
1242.679305  	0.157001 
1244.110964  	0.151260 
1245.542622  	0.144654 
1246.974280  	0.138184 
1248.405938  	0.130518 
1249.837596  	0.122125 
1251.269254  	0.113467 
1252.700913  	0.103591 
1254.132571  	0.093453 
1255.564229  	0.082788 
1256.995887  	0.071451 
1258.427545  	0.060633 
1259.859204  	0.049784 
1261.290862  	0.039106 
1262.722520  	0.029577 
1264.154178  	0.021016 
1265.585836  	0.013703 
1267.017495  	0.007832 
1268.449153  	0.002949 
1269.880811  	-0.000861 
1271.312469  	-0.003625 
1272.744127  	-0.005710 
1274.175785  	-0.006931 
1275.607444  	-0.007427 
1277.039102  	-0.007601 
1278.470760  	-0.007152 
1279.902418  	-0.006072 
1281.334076  	-0.004751 
1282.765735  	-0.003151 
1284.197393  	-0.001205 
1285.629051  	0.000849 
1287.060709  	0.002630 
1288.492367  	0.004202 
1289.924025  	0.005595 
1291.355684  	0.006183 
1292.787342  	0.005764 
1294.219000  	0.004454 
1295.650658  	0.002264 
1297.082316  	-0.000468 
1298.513975  	-0.003508 
1299.945633  	-0.006688 
1301.377291  	-0.009372 
1302.808949  	-0.011354 
1304.240607  	-0.012765 
1305.672266  	-0.013051 
1307.103924  	-0.012352 
1308.535582  	-0.011522 
1309.967240  	-0.011264 
1311.398898  	-0.012285 
1312.830556  	-0.014650 
1314.262215  	-0.017760 
1315.693873  	-0.020872 
1317.125531  	-0.023134 
1318.557189  	-0.024515 
1319.988847  	-0.025667 
1321.420506  	-0.026416 
1322.852164  	-0.026862 
1324.283822  	-0.027083 
1325.715480  	-0.027018 
1327.147138  	-0.027309 
1328.578796  	-0.027640 
1330.010455  	-0.027629 
1331.442113  	-0.027774 
1332.873771  	-0.027772 
1334.305429  	-0.027622 
1335.737087  	-0.027557 
1337.168746  	-0.027217 
1338.600404  	-0.026953 
1340.032062  	-0.026906 
1341.463720  	-0.026949 
1342.895378  	-0.027208 
1344.327037  	-0.027146 
1345.758695  	-0.026902 
1347.190353  	-0.026742 
1348.622011  	-0.026245 
1350.053669  	-0.025979 
1351.485327  	-0.025868 
1352.916986  	-0.025361 
1354.348644  	-0.024895 
1355.780302  	-0.024046 
1357.211960  	-0.022568 
1358.643618  	-0.019914 
1360.075277  	-0.014474 
1361.506935  	-0.006642 
1362.938593  	0.001713 
1364.370251  	0.005338 
1365.801909  	0.002476 
1367.233568  	-0.004016 
1368.665226  	-0.011404 
1370.096884  	-0.017062 
1371.528542  	-0.020118 
1372.960200  	-0.021327 
1374.391858  	-0.022109 
1375.823517  	-0.022386 
1377.255175  	-0.022102 
1378.686833  	-0.021462 
1380.118491  	-0.020089 
1381.550149  	-0.018001 
1382.981808  	-0.014490 
1384.413466  	-0.010444 
1385.845124  	-0.007650 
1387.276782  	-0.007323 
1388.708440  	-0.009765 
1390.140098  	-0.012826 
1391.571757  	-0.015762 
1393.003415  	-0.017548 
1394.435073  	-0.018204 
1395.866731  	-0.018402 
1397.298389  	-0.017732 
1398.730048  	-0.016341 
1400.161706  	-0.014758 
1401.593364  	-0.012551 
1403.025022  	-0.009410 
1404.456680  	-0.005578 
1405.888339  	-0.001109 
1407.319997  	0.002784 
1408.751655  	0.004898 
1410.183313  	0.005323 
1411.614971  	0.003060 
1413.046629  	-0.001397 
1414.478288  	-0.006200 
1415.909946  	-0.011268 
1417.341604  	-0.015361 
1418.773262  	-0.018264 
1420.204920  	-0.021173 
1421.636579  	-0.022352 
1423.068237  	-0.022862 
1424.499895  	-0.023766 
1425.931553  	-0.024113 
1427.363211  	-0.024266 
1428.794870  	-0.024249 
1430.226528  	-0.023730 
1431.658186  	-0.023727 
1433.089844  	-0.023500 
1434.521502  	-0.022887 
1435.953160  	-0.022512 
1437.384819  	-0.021373 
1438.816477  	-0.020312 
1440.248135  	-0.019127 
1441.679793  	-0.017252 
1443.111451  	-0.015947 
1444.543110  	-0.014524 
1445.974768  	-0.012850 
1447.406426  	-0.011795 
1448.838084  	-0.010245 
1450.269742  	-0.008980 
1451.701400  	-0.008486 
1453.133059  	-0.008020 
1454.564717  	-0.007783 
1455.996375  	-0.006743 
1457.428033  	-0.003223 
1458.859691  	-0.000682 
1460.291350  	0.001870 
1461.723008  	0.004121 
1463.154666  	0.005750 
1464.586324  	0.007075 
1466.017982  	0.006333 
1467.449641  	0.005222 
1468.881299  	0.003639 
1470.312957  	0.001711 
1471.744615  	0.001255 
1473.176273  	0.000309 
1474.607931  	-0.000770 
1476.039590  	-0.000313 
1477.471248  	-0.000571 
1478.902906  	-0.000094 
1480.334564  	0.001714 
1481.766222  	0.003322 
1483.197881  	0.006048 
1484.629539  	0.009834 
1486.061197  	0.014075 
1487.492855  	0.020593 
1488.924513  	0.027643 
1490.356172  	0.035974 
1491.787830  	0.047939 
1493.219488  	0.057653 
1494.651146  	0.067749 
1496.082804  	0.082151 
1497.514462  	0.096004 
1498.946121  	0.109309 
1500.377779  	0.121163 
1501.809437  	0.126066 
1503.241095  	0.127895 
1504.672753  	0.126105 
1506.104412  	0.116431 
1507.536070  	0.099526 
1508.967728  	0.080153 
1510.399386  	0.060987 
1511.831044  	0.042558 
1513.262702  	0.025089 
1514.694361  	0.012331 
1516.126019  	0.003672 
1517.557677  	-0.005391 
1518.989335  	-0.011264 
1520.420993  	-0.013666 
1521.852652  	-0.017763 
1523.284310  	-0.020691 
1524.715968  	-0.021496 
1526.147626  	-0.023274 
1527.579284  	-0.024416 
1529.010943  	-0.025173 
1530.442601  	-0.026354 
1531.874259  	-0.026423 
1533.305917  	-0.026486 
1534.737575  	-0.027571 
1536.169233  	-0.027780 
1537.600892  	-0.028027 
1539.032550  	-0.028253 
1540.464208  	-0.028333 
1541.895866  	-0.029434 
1543.327524  	-0.029445 
1544.759183  	-0.029545 
1546.190841  	-0.030303 
1547.622499  	-0.030130 
1549.054157  	-0.029866 
1550.485815  	-0.030120 
1551.917473  	-0.030187 
1553.349132  	-0.030214 
1554.780790  	-0.030220 
1556.212448  	-0.030124 
1557.644106  	-0.029937 
1559.075764  	-0.029517 
1560.507423  	-0.030807 
1561.939081  	-0.031062 
1563.370739  	-0.030832 
1564.802397  	-0.030984 
1566.234055  	-0.031096 
1567.665714  	-0.030762 
1569.097372  	-0.030498 
1570.529030  	-0.030390 
1571.960688  	-0.030402 
1573.392346  	-0.030309 
1574.824004  	-0.029904 
1576.255663  	-0.029530 
1577.687321  	-0.029343 
1579.118979  	-0.029015 
1580.550637  	-0.028563 
1581.982295  	-0.027705 
1583.413954  	-0.026531 
1584.845612  	-0.025107 
1586.277270  	-0.023259 
1587.708928  	-0.021048 
1589.140586  	-0.018613 
1590.572245  	-0.016596 
1592.003903  	-0.015143 
1593.435561  	-0.014361 
1594.867219  	-0.014398 
1596.298877  	-0.014716 
1597.730535  	-0.014958 
1599.162194  	-0.014618 
1600.593852  	-0.013960 
1602.025510  	-0.013792 
1603.457168  	-0.014040 
1604.888826  	-0.015006 
1606.320485  	-0.016600 
1607.752143  	-0.018508 
1609.183801  	-0.020827 
1610.615459  	-0.022805 
1612.047117  	-0.024503 
1613.478775  	-0.025807 
1614.910434  	-0.026333 
1616.342092  	-0.026804 
1617.773750  	-0.027682 
1619.205408  	-0.028122 
1620.637066  	-0.028243 
1622.068725  	-0.028155 
1623.500383  	-0.028341 
1624.932041  	-0.028857 
1626.363699  	-0.028918 
1627.795357  	-0.028822 
1629.227016  	-0.028764 
1630.658674  	-0.028618 
1632.090332  	-0.028479 
1633.521990  	-0.028084 
1634.953648  	-0.027417 
1636.385306  	-0.027378 
1637.816965  	-0.027414 
1639.248623  	-0.027145 
1640.680281  	-0.027217 
1642.111939  	-0.027211 
1643.543597  	-0.026712 
1644.975256  	-0.026106 
1646.406914  	-0.025712 
1647.838572  	-0.025826 
1649.270230  	-0.026066 
1650.701888  	-0.025971 
1652.133547  	-0.025503 
1653.565205  	-0.025281 
1654.996863  	-0.026210 
1656.428521  	-0.026288 
1657.860179  	-0.026141 
1659.291837  	-0.026276 
1660.723496  	-0.026357 
1662.155154  	-0.026122 
1663.586812  	-0.026122 
1665.018470  	-0.026408 
1666.450128  	-0.026632 
1667.881787  	-0.026654 
1669.313445  	-0.026449 
1670.745103  	-0.026816 
1672.176761  	-0.027116 
1673.608419  	-0.026861 
1675.040077  	-0.026803 
1676.471736  	-0.026981 
1677.903394  	-0.026844 
1679.335052  	-0.026701 
1680.766710  	-0.026523 
1682.198368  	-0.026154 
1683.630027  	-0.025556 
1685.061685  	-0.026003 
1686.493343  	-0.026534 
1687.925001  	-0.026245 
1689.356659  	-0.025961 
1690.788318  	-0.025777 
1692.219976  	-0.025212 
1693.651634  	-0.024571 
1695.083292  	-0.023817 
1696.514950  	-0.023541 
1697.946608  	-0.023598 
1699.378267  	-0.022523 
1700.809925  	-0.021659 
1702.241583  	-0.022027 
1703.673241  	-0.021119 
1705.104899  	-0.020440 
1706.536558  	-0.020139 
1707.968216  	-0.019241 
1709.399874  	-0.018803 
1710.831532  	-0.018110 
1712.263190  	-0.017011 
1713.694849  	-0.016292 
1715.126507  	-0.014998 
1716.558165  	-0.013925 
1717.989823  	-0.013548 
1719.421481  	-0.012249 
1720.853139  	-0.011564 
1722.284798  	-0.010594 
1723.716456  	-0.008873 
1725.148114  	-0.007616 
1726.579772  	-0.005987 
1728.011430  	-0.004499 
1729.443089  	-0.003629 
1730.874747  	-0.001976 
1732.306405  	-0.000765 
1733.738063  	0.000420 
1735.169721  	0.002465 
1736.601379  	0.003078 
1738.033038  	0.004701 
1739.464696  	0.006912 
1740.896354  	0.008496 
1742.328012  	0.011281 
1743.759670  	0.013875 
1745.191329  	0.016725 
1746.622987  	0.021253 
1748.054645  	0.025366 
1749.486303  	0.030564 
1750.917961  	0.037603 
1752.349620  	0.045145 
1753.781278  	0.054563 
1755.212936  	0.063855 
1756.644594  	0.075032 
1758.076252  	0.091263 
1759.507910  	0.104861 
1760.939569  	0.117936 
1762.371227  	0.135981 
1763.802885  	0.148939 
1765.234543  	0.156327 
1766.666201  	0.162915 
1768.097860  	0.164562 
1769.529518  	0.163198 
1770.961176  	0.160808 
1772.392834  	0.153253 
1773.824492  	0.146360 
1775.256150  	0.138931 
1776.687809  	0.128100 
1778.119467  	0.119073 
1779.551125  	0.109497 
1780.982783  	0.097773 
1782.414441  	0.088620 
1783.846100  	0.078352 
1785.277758  	0.067095 
1786.709416  	0.058252 
1788.141074  	0.048037 
1789.572732  	0.038506 
1791.004391  	0.030643 
1792.436049  	0.019745 
1793.867707  	0.011283 
1795.299365  	0.005017 
1796.731023  	-0.002207 
1798.162681  	-0.006697 
1799.594340  	-0.011046 
1801.025998  	-0.015645 
1802.457656  	-0.017672 
1803.889314  	-0.020746 
1805.320972  	-0.023000 
1806.752631  	-0.024115 
1808.184289  	-0.026420 
1809.615947  	-0.027034 
1811.047605  	-0.027475 
1812.479263  	-0.029050 
1813.910922  	-0.029331 
1815.342580  	-0.030425 
1816.774238  	-0.031382 
1818.205896  	-0.031158 
1819.637554  	-0.031860 
1821.069212  	-0.031706 
1822.500871  	-0.031682 
1823.932529  	-0.032499 
1825.364187  	-0.032062 
1826.795845  	-0.032747 
1828.227503  	-0.033382 
1829.659162  	-0.032562 
1831.090820  	-0.033045 
1832.522478  	-0.033091 
1833.954136  	-0.033039 
1835.385794  	-0.033749 
1836.817452  	-0.033303 
1838.249111  	-0.033706 
1839.680769  	-0.034417 
1841.112427  	-0.033634 
1842.544085  	-0.033868 
1843.975743  	-0.034230 
1845.407402  	-0.033955 
1846.839060  	-0.034469 
1848.270718  	-0.034101 
1849.702376  	-0.034047 
1851.134034  	-0.034114 
1852.565693  	-0.033559 
1853.997351  	-0.034556 
1855.429009  	-0.034909 
1856.860667  	-0.033915 
1858.292325  	-0.034048 
1859.723983  	-0.033855 
1861.155642  	-0.033949 
1862.587300  	-0.034726 
1864.018958  	-0.034483 
1865.450616  	-0.034631 
1866.882274  	-0.034187 
1868.313933  	-0.033125 
1869.745591  	-0.034254 
1871.177249  	-0.034347 
1872.608907  	-0.033836 
1874.040565  	-0.034200 
1875.472224  	-0.033549 
1876.903882  	-0.033431 
1878.335540  	-0.033829 
1879.767198  	-0.033528 
1881.198856  	-0.033984 
1882.630514  	-0.033707 
1884.062173  	-0.033031 
1885.493831  	-0.033256 
1886.925489  	-0.032602 
1888.357147  	-0.032488 
1889.788805  	-0.032778 
1891.220464  	-0.032000 
1892.652122  	-0.032413 
1894.083780  	-0.032494 
1895.515438  	-0.031810 
1896.947096  	-0.032060 
1898.378754  	-0.031402 
1899.810413  	-0.031168 
1901.242071  	-0.031834 
1902.673729  	-0.031423 
1904.105387  	-0.031701 
1905.537045  	-0.032100 
1906.968704  	-0.032124 
1908.400362  	-0.032810 
1909.832020  	-0.032087 
1911.263678  	-0.032279 
1912.695336  	-0.034198 
1914.126995  	-0.034412 
1915.558653  	-0.035072 
1916.990311  	-0.035896 
1918.421969  	-0.034792 
1919.853627  	-0.035021 
1921.285285  	-0.034879 
1922.716944  	-0.034110 
1924.148602  	-0.035255 
1925.580260  	-0.035172 
1927.011918  	-0.034644 
1928.443576  	-0.035336 
1929.875235  	-0.035592 
1931.306893  	-0.036163 
1932.738551  	-0.035968 
1934.170209  	-0.035374 
1935.601867  	-0.036193 
1937.033525  	-0.035699 
1938.465184  	-0.034860 
1939.896842  	-0.035002 
1941.328500  	-0.034754 
1942.760158  	-0.035936 
1944.191816  	-0.036583 
1945.623475  	-0.036022 
1947.055133  	-0.036520 
1948.486791  	-0.035401 
1949.918449  	-0.034651 
1951.350107  	-0.035687 
1952.781766  	-0.035342 
1954.213424  	-0.035607 
1955.645082  	-0.035484 
1957.076740  	-0.034622 
1958.508398  	-0.036349 
1959.940056  	-0.035819 
1961.371715  	-0.033858 
1962.803373  	-0.035271 
1964.235031  	-0.035880 
1965.666689  	-0.036112 
1967.098347  	-0.036343 
1968.530006  	-0.035530 
1969.961664  	-0.036394 
1971.393322  	-0.034878 
1972.824980  	-0.033508 
1974.256638  	-0.036076 
1975.688297  	-0.035576 
1977.119955  	-0.034693 
1978.551613  	-0.035916 
1979.983271  	-0.034874 
1981.414929  	-0.034652 
1982.846587  	-0.034730 
1984.278246  	-0.035189 
1985.709904  	-0.036455 
1987.141562  	-0.035579 
1988.573220  	-0.037102 
1990.004878  	-0.039054 
1991.436537  	-0.035982 
1992.868195  	-0.035746 
1994.299853  	-0.037482 
1995.731511  	-0.036362 
1997.163169  	-0.036517 
1998.594827  	-0.035942 
2000.026486  	-0.035584 
2001.458144  	-0.037241 
2002.889802  	-0.035292 
2004.321460  	-0.033423 
2005.753118  	-0.034737 
2007.184777  	-0.034642 
2008.616435  	-0.034784 
2010.048093  	-0.036197 
2011.479751  	-0.037325 
2012.911409  	-0.036645 
2014.343068  	-0.034352 
2015.774726  	-0.035281 
2017.206384  	-0.035434 
2018.638042  	-0.033496 
2020.069700  	-0.036129 
2021.501358  	-0.037103 
2022.933017  	-0.035672 
2024.364675  	-0.037701 
2025.796333  	-0.036819 
2027.227991  	-0.034605 
2028.659649  	-0.035772 
2030.091308  	-0.036921 
2031.522966  	-0.037987 
2032.954624  	-0.036920 
2034.386282  	-0.035451 
2035.817940  	-0.036534 
2037.249599  	-0.034895 
2038.681257  	-0.033906 
2040.112915  	-0.035390 
2041.544573  	-0.035150 
2042.976231  	-0.036323 
2044.407889  	-0.036636 
2045.839548  	-0.034317 
2047.271206  	-0.034886 
2048.702864  	-0.036141 
2050.134522  	-0.036292 
2051.566180  	-0.036078 
2052.997839  	-0.034496 
2054.429497  	-0.034614 
2055.861155  	-0.035539 
2057.292813  	-0.035692 
2058.724471  	-0.037535 
2060.156129  	-0.037986 
2061.587788  	-0.036723 
2063.019446  	-0.037102 
2064.451104  	-0.036919 
2065.882762  	-0.036620 
2067.314420  	-0.037299 
2068.746079  	-0.037592 
2070.177737  	-0.038022 
2071.609395  	-0.037259 
2073.041053  	-0.036654 
2074.472711  	-0.037714 
2075.904370  	-0.036997 
2077.336028  	-0.036335 
2078.767686  	-0.037301 
2080.199344  	-0.036628 
2081.631002  	-0.035889 
2083.062660  	-0.036193 
2084.494319  	-0.036479 
2085.925977  	-0.037247 
2087.357635  	-0.037345 
2088.789293  	-0.037254 
2090.220951  	-0.037594 
2091.652610  	-0.037038 
2093.084268  	-0.037037 
2094.515926  	-0.037523 
2095.947584  	-0.037921 
2097.379242  	-0.039042 
2098.810901  	-0.038454 
2100.242559  	-0.037106 
2101.674217  	-0.037317 
2103.105875  	-0.036979 
2104.537533  	-0.037181 
2105.969191  	-0.038412 
2107.400850  	-0.038142 
2108.832508  	-0.037462 
2110.264166  	-0.037103 
2111.695824  	-0.036998 
2113.127482  	-0.037161 
2114.559141  	-0.036852 
2115.990799  	-0.037816 
2117.422457  	-0.039034 
2118.854115  	-0.038373 
2120.285773  	-0.038339 
2121.717431  	-0.038226 
2123.149090  	-0.037267 
2124.580748  	-0.037978 
2126.012406  	-0.038030 
2127.444064  	-0.036596 
2128.875722  	-0.036195 
2130.307381  	-0.036483 
2131.739039  	-0.037652 
2133.170697  	-0.038328 
2134.602355  	-0.037561 
2136.034013  	-0.038071 
2137.465672  	-0.037920 
2138.897330  	-0.037031 
2140.328988  	-0.037875 
2141.760646  	-0.037306 
2143.192304  	-0.036084 
2144.623962  	-0.035986 
2146.055621  	-0.035775 
2147.487279  	-0.037176 
2148.918937  	-0.037824 
2150.350595  	-0.036766 
2151.782253  	-0.037756 
2153.213912  	-0.037892 
2154.645570  	-0.036988 
2156.077228  	-0.037468 
2157.508886  	-0.037334 
2158.940544  	-0.037675 
2160.372202  	-0.036298 
2161.803861  	-0.034577 
2163.235519  	-0.037402 
2164.667177  	-0.039343 
2166.098835  	-0.038461 
2167.530493  	-0.037964 
2168.962152  	-0.038103 
2170.393810  	-0.039513 
2171.825468  	-0.038566 
2173.257126  	-0.036076 
2174.688784  	-0.037046 
2176.120443  	-0.037362 
2177.552101  	-0.037125 
2178.983759  	-0.039295 
2180.415417  	-0.039219 
2181.847075  	-0.037848 
2183.278733  	-0.036808 
2184.710392  	-0.034947 
2186.142050  	-0.035706 
2187.573708  	-0.036973 
2189.005366  	-0.036083 
2190.437024  	-0.036460 
2191.868683  	-0.037204 
2193.300341  	-0.036139 
2194.731999  	-0.034606 
2196.163657  	-0.034857 
2197.595315  	-0.036926 
2199.026974  	-0.037197 
2200.458632  	-0.036099 
2201.890290  	-0.036473 
2203.321948  	-0.036822 
2204.753606  	-0.037036 
2206.185264  	-0.037268 
2207.616923  	-0.036948 
2209.048581  	-0.037630 
2210.480239  	-0.038169 
2211.911897  	-0.037830 
2213.343555  	-0.037465 
2214.775214  	-0.036449 
2216.206872  	-0.036505 
2217.638530  	-0.037078 
2219.070188  	-0.036658 
2220.501846  	-0.037161 
2221.933504  	-0.036689 
2223.365163  	-0.035491 
2224.796821  	-0.036555 
2226.228479  	-0.036406 
2227.660137  	-0.035590 
2229.091795  	-0.037201 
2230.523454  	-0.037628 
2231.955112  	-0.036714 
2233.386770  	-0.036465 
2234.818428  	-0.036246 
2236.250086  	-0.036931 
2237.681745  	-0.037290 
2239.113403  	-0.036328 
2240.545061  	-0.036138 
2241.976719  	-0.036545 
2243.408377  	-0.036607 
2244.840035  	-0.036258 
2246.271694  	-0.036230 
2247.703352  	-0.037279 
2249.135010  	-0.037448 
2250.566668  	-0.036907 
2251.998326  	-0.037637 
2253.429985  	-0.038278 
2254.861643  	-0.038127 
2256.293301  	-0.037310 
2257.724959  	-0.036232 
2259.156617  	-0.036970 
2260.588276  	-0.038321 
2262.019934  	-0.038501 
2263.451592  	-0.038494 
2264.883250  	-0.038455 
2266.314908  	-0.039037 
2267.746566  	-0.039863 
2269.178225  	-0.039315 
2270.609883  	-0.038639 
2272.041541  	-0.038181 
2273.473199  	-0.037843 
2274.904857  	-0.038838 
2276.336516  	-0.039596 
2277.768174  	-0.039363 
2279.199832  	-0.039415 
2280.631490  	-0.039422 
2282.063148  	-0.039483 
2283.494806  	-0.039519 
2284.926465  	-0.039296 
2286.358123  	-0.039271 
2287.789781  	-0.038758 
2289.221439  	-0.038634 
2290.653097  	-0.039542 
2292.084756  	-0.039295 
2293.516414  	-0.038617 
2294.948072  	-0.039088 
2296.379730  	-0.039170 
2297.811388  	-0.038685 
2299.243047  	-0.038329 
2300.674705  	-0.037932 
2302.106363  	-0.037821 
2303.538021  	-0.037793 
2304.969679  	-0.037675 
2306.401337  	-0.037408 
2307.832996  	-0.036723 
2309.264654  	-0.036338 
2310.696312  	-0.036158 
2312.127970  	-0.035747 
2313.559628  	-0.035678 
2314.991287  	-0.035454 
2316.422945  	-0.034974 
2317.854603  	-0.034770 
2319.286261  	-0.034136 
2320.717919  	-0.033396 
2322.149577  	-0.033199 
2323.581236  	-0.033075 
2325.012894  	-0.033121 
2326.444552  	-0.032945 
2327.876210  	-0.032085 
2329.307868  	-0.031336 
2330.739527  	-0.031297 
2332.171185  	-0.031652 
2333.602843  	-0.031783 
2335.034501  	-0.031799 
2336.466159  	-0.031973 
2337.897818  	-0.031572 
2339.329476  	-0.030978 
2340.761134  	-0.030917 
2342.192792  	-0.030776 
2343.624450  	-0.030953 
2345.056108  	-0.031534 
2346.487767  	-0.032281 
2347.919425  	-0.033816 
2349.351083  	-0.034559 
2350.782741  	-0.033283 
2352.214399  	-0.031610 
2353.646058  	-0.030974 
2355.077716  	-0.030359 
2356.509374  	-0.029511 
2357.941032  	-0.028797 
2359.372690  	-0.028493 
2360.804349  	-0.028707 
2362.236007  	-0.029007 
2363.667665  	-0.029371 
2365.099323  	-0.029588 
2366.530981  	-0.029802 
2367.962639  	-0.030493 
2369.394298  	-0.031366 
2370.825956  	-0.032349 
2372.257614  	-0.033135 
2373.689272  	-0.033543 
2375.120930  	-0.034172 
2376.552589  	-0.034756 
2377.984247  	-0.035288 
2379.415905  	-0.036165 
2380.847563  	-0.036842 
2382.279221  	-0.037358 
2383.710879  	-0.037982 
2385.142538  	-0.038484 
2386.574196  	-0.039009 
2388.005854  	-0.039109 
2389.437512  	-0.038540 
2390.869170  	-0.038385 
2392.300829  	-0.038847 
2393.732487  	-0.039157 
2395.164145  	-0.039055 
2396.595803  	-0.038828 
2398.027461  	-0.038857 
2399.459120  	-0.038925 
2400.890778  	-0.038900 
2402.322436  	-0.038791 
2403.754094  	-0.038285 
2405.185752  	-0.038060 
2406.617410  	-0.038430 
2408.049069  	-0.038469 
2409.480727  	-0.038230 
2410.912385  	-0.038049 
2412.344043  	-0.038054 
2413.775701  	-0.038430 
2415.207360  	-0.038426 
2416.639018  	-0.038206 
2418.070676  	-0.038574 
2419.502334  	-0.038885 
2420.933992  	-0.038919 
2422.365651  	-0.038817 
2423.797309  	-0.038480 
2425.228967  	-0.038639 
2426.660625  	-0.039170 
2428.092283  	-0.039406 
2429.523941  	-0.039364 
2430.955600  	-0.038874 
2432.387258  	-0.038563 
2433.818916  	-0.038938 
2435.250574  	-0.039195 
2436.682232  	-0.039227 
2438.113891  	-0.039279 
2439.545549  	-0.039227 
2440.977207  	-0.039130 
2442.408865  	-0.038932 
2443.840523  	-0.038976 
2445.272181  	-0.039183 
2446.703840  	-0.039025 
2448.135498  	-0.039038 
2449.567156  	-0.039328 
2450.998814  	-0.039437 
2452.430472  	-0.039460 
2453.862131  	-0.039363 
2455.293789  	-0.039577 
2456.725447  	-0.039968 
2458.157105  	-0.039642 
2459.588763  	-0.039320 
2461.020422  	-0.039428 
2462.452080  	-0.039439 
2463.883738  	-0.039627 
2465.315396  	-0.039515 
2466.747054  	-0.038993 
2468.178712  	-0.039115 
2469.610371  	-0.039431 
2471.042029  	-0.039317 
2472.473687  	-0.039245 
2473.905345  	-0.039329 
2475.337003  	-0.039404 
2476.768662  	-0.039337 
2478.200320  	-0.039371 
2479.631978  	-0.039546 
2481.063636  	-0.039481 
2482.495294  	-0.039590 
2483.926953  	-0.039646 
2485.358611  	-0.039256 
2486.790269  	-0.039448 
2488.221927  	-0.039937 
2489.653585  	-0.040005 
2491.085243  	-0.040256 
2492.516902  	-0.040302 
2493.948560  	-0.040111 
2495.380218  	-0.040244 
2496.811876  	-0.040156 
2498.243534  	-0.040263 
2499.675193  	-0.040770 
2501.106851  	-0.040635 
2502.538509  	-0.040284 
2503.970167  	-0.040381 
2505.401825  	-0.040539 
2506.833483  	-0.040628 
2508.265142  	-0.040828 
2509.696800  	-0.041238 
2511.128458  	-0.041207 
2512.560116  	-0.040601 
2513.991774  	-0.040535 
2515.423433  	-0.040814 
2516.855091  	-0.040703 
2518.286749  	-0.040605 
2519.718407  	-0.040754 
2521.150065  	-0.041108 
2522.581724  	-0.041250 
2524.013382  	-0.040890 
2525.445040  	-0.040670 
2526.876698  	-0.040846 
2528.308356  	-0.041366 
2529.740014  	-0.041701 
2531.171673  	-0.041217 
2532.603331  	-0.041052 
2534.034989  	-0.041334 
2535.466647  	-0.041085 
2536.898305  	-0.041221 
2538.329964  	-0.041521 
2539.761622  	-0.041195 
2541.193280  	-0.041311 
2542.624938  	-0.041482 
2544.056596  	-0.041191 
2545.488254  	-0.041304 
2546.919913  	-0.041548 
2548.351571  	-0.041822 
2549.783229  	-0.042125 
2551.214887  	-0.041969 
2552.646545  	-0.041983 
2554.078204  	-0.042147 
2555.509862  	-0.041942 
2556.941520  	-0.041669 
2558.373178  	-0.041239 
2559.804836  	-0.041088 
2561.236495  	-0.041496 
2562.668153  	-0.041672 
2564.099811  	-0.041795 
2565.531469  	-0.041958 
2566.963127  	-0.041821 
2568.394785  	-0.041795 
2569.826444  	-0.041702 
2571.258102  	-0.041555 
2572.689760  	-0.041677 
2574.121418  	-0.041532 
2575.553076  	-0.041300 
2576.984735  	-0.041364 
2578.416393  	-0.041533 
2579.848051  	-0.041945 
2581.279709  	-0.042139 
2582.711367  	-0.041882 
2584.143026  	-0.041853 
2585.574684  	-0.041900 
2587.006342  	-0.041659 
2588.438000  	-0.041281 
2589.869658  	-0.041087 
2591.301316  	-0.041341 
2592.732975  	-0.041517 
2594.164633  	-0.041489 
2595.596291  	-0.041747 
2597.027949  	-0.041821 
2598.459607  	-0.041670 
2599.891266  	-0.041909 
2601.322924  	-0.042194 
2602.754582  	-0.042197 
2604.186240  	-0.042076 
2605.617898  	-0.041854 
2607.049556  	-0.041667 
2608.481215  	-0.041617 
2609.912873  	-0.041639 
2611.344531  	-0.041662 
2612.776189  	-0.041814 
2614.207847  	-0.042167 
2615.639506  	-0.042337 
2617.071164  	-0.042189 
2618.502822  	-0.041958 
2619.934480  	-0.041758 
2621.366138  	-0.041784 
2622.797797  	-0.041993 
2624.229455  	-0.042267 
2625.661113  	-0.042529 
2627.092771  	-0.042464 
2628.524429  	-0.042420 
2629.956087  	-0.042607 
2631.387746  	-0.042440 
2632.819404  	-0.042288 
2634.251062  	-0.042539 
2635.682720  	-0.042686 
2637.114378  	-0.042723 
2638.546037  	-0.042653 
2639.977695  	-0.042569 
2641.409353  	-0.042793 
2642.841011  	-0.042791 
2644.272669  	-0.042490 
2645.704328  	-0.042396 
2647.135986  	-0.042380 
2648.567644  	-0.042475 
2649.999302  	-0.042508 
2651.430960  	-0.042304 
2652.862618  	-0.042422 
2654.294277  	-0.042582 
2655.725935  	-0.042425 
2657.157593  	-0.042485 
2658.589251  	-0.042566 
2660.020909  	-0.042374 
2661.452568  	-0.042180 
2662.884226  	-0.042015 
2664.315884  	-0.042042 
2665.747542  	-0.042194 
2667.179200  	-0.042153 
2668.610858  	-0.042123 
2670.042517  	-0.042207 
2671.474175  	-0.042335 
2672.905833  	-0.042414 
2674.337491  	-0.042255 
2675.769149  	-0.042163 
2677.200808  	-0.042288 
2678.632466  	-0.042311 
2680.064124  	-0.042222 
2681.495782  	-0.041988 
2682.927440  	-0.041794 
2684.359099  	-0.042010 
2685.790757  	-0.042295 
2687.222415  	-0.042360 
2688.654073  	-0.042349 
2690.085731  	-0.042263 
2691.517389  	-0.042174 
2692.949048  	-0.042136 
2694.380706  	-0.042109 
2695.812364  	-0.042073 
2697.244022  	-0.042046 
2698.675680  	-0.042190 
2700.107339  	-0.042309 
2701.538997  	-0.042203 
2702.970655  	-0.042181 
2704.402313  	-0.042196 
2705.833971  	-0.042067 
2707.265630  	-0.041934 
2708.697288  	-0.041801 
2710.128946  	-0.041773 
2711.560604  	-0.041732 
2712.992262  	-0.041511 
2714.423920  	-0.041512 
2715.855579  	-0.041679 
2717.287237  	-0.041750 
2718.718895  	-0.041910 
2720.150553  	-0.041991 
2721.582211  	-0.042015 
2723.013870  	-0.042160 
2724.445528  	-0.042120 
2725.877186  	-0.041975 
2727.308844  	-0.041870 
2728.740502  	-0.041783 
2730.172160  	-0.041931 
2731.603819  	-0.042024 
2733.035477  	-0.041884 
2734.467135  	-0.041827 
2735.898793  	-0.041788 
2737.330451  	-0.041854 
2738.762110  	-0.042076 
2740.193768  	-0.042100 
2741.625426  	-0.041999 
2743.057084  	-0.042010 
2744.488742  	-0.042222 
2745.920401  	-0.042386 
2747.352059  	-0.042173 
2748.783717  	-0.042121 
2750.215375  	-0.042315 
2751.647033  	-0.042190 
2753.078691  	-0.042096 
2754.510350  	-0.042068 
2755.942008  	-0.041914 
2757.373666  	-0.042048 
2758.805324  	-0.042039 
2760.236982  	-0.041767 
2761.668641  	-0.041877 
2763.100299  	-0.041953 
2764.531957  	-0.041867 
2765.963615  	-0.042015 
2767.395273  	-0.041959 
2768.826931  	-0.041619 
2770.258590  	-0.041336 
2771.690248  	-0.041205 
2773.121906  	-0.041293 
2774.553564  	-0.041299 
2775.985222  	-0.041094 
2777.416881  	-0.040945 
2778.848539  	-0.040923 
2780.280197  	-0.041109 
2781.711855  	-0.041294 
2783.143513  	-0.041216 
2784.575172  	-0.041189 
2786.006830  	-0.041280 
2787.438488  	-0.041266 
2788.870146  	-0.041267 
2790.301804  	-0.041426 
2791.733462  	-0.041505 
2793.165121  	-0.041241 
2794.596779  	-0.041061 
2796.028437  	-0.041214 
2797.460095  	-0.041218 
2798.891753  	-0.041222 
2800.323412  	-0.041410 
2801.755070  	-0.041408 
2803.186728  	-0.041407 
2804.618386  	-0.041377 
2806.050044  	-0.041169 
2807.481703  	-0.041169 
2808.913361  	-0.041107 
2810.345019  	-0.040981 
2811.776677  	-0.041168 
2813.208335  	-0.041121 
2814.639993  	-0.040985 
2816.071652  	-0.041170 
2817.503310  	-0.041100 
2818.934968  	-0.040960 
2820.366626  	-0.041048 
2821.798284  	-0.040978 
2823.229943  	-0.040938 
2824.661601  	-0.041014 
2826.093259  	-0.041030 
2827.524917  	-0.040951 
2828.956575  	-0.040622 
2830.388233  	-0.040502 
2831.819892  	-0.040815 
2833.251550  	-0.040917 
2834.683208  	-0.040790 
2836.114866  	-0.040641 
2837.546524  	-0.040381 
2838.978183  	-0.040218 
2840.409841  	-0.040125 
2841.841499  	-0.039935 
2843.273157  	-0.039690 
2844.704815  	-0.039343 
2846.136474  	-0.038877 
2847.568132  	-0.038403 
2848.999790  	-0.038199 
2850.431448  	-0.038164 
2851.863106  	-0.037794 
2853.294764  	-0.037378 
2854.726423  	-0.037162 
2856.158081  	-0.036753 
2857.589739  	-0.036369 
2859.021397  	-0.036002 
2860.453055  	-0.035203 
2861.884714  	-0.034218 
2863.316372  	-0.033176 
2864.748030  	-0.032160 
2866.179688  	-0.031374 
2867.611346  	-0.030331 
2869.043005  	-0.029081 
2870.474663  	-0.028258 
2871.906321  	-0.027801 
2873.337979  	-0.027717 
2874.769637  	-0.028008 
2876.201295  	-0.028327 
2877.632954  	-0.028853 
2879.064612  	-0.029625 
2880.496270  	-0.030387 
2881.927928  	-0.031230 
2883.359586  	-0.031910 
2884.791245  	-0.032260 
2886.222903  	-0.032565 
2887.654561  	-0.032679 
2889.086219  	-0.032441 
2890.517877  	-0.032118 
2891.949535  	-0.031963 
2893.381194  	-0.032118 
2894.812852  	-0.032341 
2896.244510  	-0.032375 
2897.676168  	-0.032429 
2899.107826  	-0.032445 
2900.539485  	-0.032294 
2901.971143  	-0.032302 
2903.402801  	-0.032312 
2904.834459  	-0.031887 
2906.266117  	-0.031301 
2907.697776  	-0.030857 
2909.129434  	-0.030463 
2910.561092  	-0.030140 
2911.992750  	-0.029975 
2913.424408  	-0.029991 
2914.856066  	-0.030027 
2916.287725  	-0.029943 
2917.719383  	-0.029910 
2919.151041  	-0.029778 
2920.582699  	-0.029310 
2922.014357  	-0.028853 
2923.446016  	-0.028376 
2924.877674  	-0.027589 
2926.309332  	-0.026733 
2927.740990  	-0.025844 
2929.172648  	-0.024943 
2930.604306  	-0.024269 
2932.035965  	-0.023721 
2933.467623  	-0.023437 
2934.899281  	-0.023486 
2936.330939  	-0.023489 
2937.762597  	-0.023572 
2939.194256  	-0.023842 
2940.625914  	-0.024094 
2942.057572  	-0.024493 
2943.489230  	-0.024881 
2944.920888  	-0.025018 
2946.352547  	-0.025223 
2947.784205  	-0.025330 
2949.215863  	-0.024923 
2950.647521  	-0.024203 
2952.079179  	-0.023368 
2953.510837  	-0.022332 
2954.942496  	-0.021013 
2956.374154  	-0.019350 
2957.805812  	-0.017255 
2959.237470  	-0.014917 
2960.669128  	-0.012731 
2962.100787  	-0.010599 
2963.532445  	-0.008513 
2964.964103  	-0.006938 
2966.395761  	-0.005971 
2967.827419  	-0.005646 
2969.259078  	-0.005921 
2970.690736  	-0.006466 
2972.122394  	-0.007499 
2973.554052  	-0.009222 
2974.985710  	-0.011276 
2976.417368  	-0.013450 
2977.849027  	-0.015540 
2979.280685  	-0.017593 
2980.712343  	-0.019901 
2982.144001  	-0.022124 
2983.575659  	-0.024148 
2985.007318  	-0.026108 
2986.438976  	-0.027645 
2987.870634  	-0.029100 
2989.302292  	-0.030722 
2990.733950  	-0.031980 
2992.165608  	-0.033235 
2993.597267  	-0.034622 
2995.028925  	-0.035688 
2996.460583  	-0.036683 
2997.892241  	-0.037368 
2999.323899  	-0.037712 
3000.755558  	-0.038443 
3002.187216  	-0.039157 
3003.618874  	-0.039621 
3005.050532  	-0.040305 
3006.482190  	-0.040830 
3007.913849  	-0.041114 
3009.345507  	-0.041404 
3010.777165  	-0.041554 
3012.208823  	-0.041822 
3013.640481  	-0.042241 
3015.072139  	-0.042517 
3016.503798  	-0.042677 
3017.935456  	-0.042651 
3019.367114  	-0.042618 
3020.798772  	-0.042851 
3022.230430  	-0.043030 
3023.662089  	-0.042866 
3025.093747  	-0.042583 
3026.525405  	-0.042570 
3027.957063  	-0.042562 
3029.388721  	-0.041977 
3030.820380  	-0.041188 
3032.252038  	-0.040610 
3033.683696  	-0.040032 
3035.115354  	-0.039551 
3036.547012  	-0.039152 
3037.978670  	-0.038589 
3039.410329  	-0.037974 
3040.841987  	-0.037542 
3042.273645  	-0.037608 
3043.705303  	-0.038069 
3045.136961  	-0.038334 
3046.568620  	-0.038389 
3048.000278  	-0.038505 
3049.431936  	-0.038699 
3050.863594  	-0.038952 
3052.295252  	-0.038989 
3053.726910  	-0.038732 
3055.158569  	-0.038554 
3056.590227  	-0.038539 
3058.021885  	-0.038514 
3059.453543  	-0.038444 
3060.885201  	-0.038397 
3062.316860  	-0.038402 
3063.748518  	-0.038460 
3065.180176  	-0.038664 
3066.611834  	-0.038960 
3068.043492  	-0.039321 
3069.475151  	-0.039795 
3070.906809  	-0.040063 
3072.338467  	-0.040168 
3073.770125  	-0.040512 
3075.201783  	-0.040857 
3076.633441  	-0.041001 
3078.065100  	-0.041165 
3079.496758  	-0.041417 
3080.928416  	-0.041669 
3082.360074  	-0.041721 
3083.791732  	-0.041809 
3085.223391  	-0.042206 
3086.655049  	-0.042510 
3088.086707  	-0.042721 
3089.518365  	-0.042899 
3090.950023  	-0.042825 
3092.381682  	-0.043180 
3093.813340  	-0.043888 
3095.244998  	-0.043917 
3096.676656  	-0.043625 
3098.108314  	-0.043566 
3099.539972  	-0.043520 
3100.971631  	-0.043489 
3102.403289  	-0.043399 
3103.834947  	-0.043421 
3105.266605  	-0.043717 
3106.698263  	-0.043821 
3108.129922  	-0.043769 
3109.561580  	-0.043834 
3110.993238  	-0.043901 
3112.424896  	-0.044040 
3113.856554  	-0.044125 
3115.288212  	-0.043951 
3116.719871  	-0.043794 
3118.151529  	-0.044022 
3119.583187  	-0.044490 
3121.014845  	-0.044567 
3122.446503  	-0.044386 
3123.878162  	-0.044512 
3125.309820  	-0.044599 
3126.741478  	-0.044658 
3128.173136  	-0.044884 
3129.604794  	-0.044710 
3131.036453  	-0.044570 
3132.468111  	-0.045176 
3133.899769  	-0.045831 
3135.331427  	-0.045833 
3136.763085  	-0.045426 
3138.194743  	-0.045370 
3139.626402  	-0.045722 
3141.058060  	-0.045655 
3142.489718  	-0.045434 
3143.921376  	-0.045599 
3145.353034  	-0.045688 
3146.784693  	-0.045640 
3148.216351  	-0.045585 
3149.648009  	-0.045594 
3151.079667  	-0.045783 
3152.511325  	-0.045676 
3153.942983  	-0.045544 
3155.374642  	-0.045875 
3156.806300  	-0.045988 
3158.237958  	-0.045901 
3159.669616  	-0.045974 
3161.101274  	-0.045960 
3162.532933  	-0.046063 
3163.964591  	-0.046092 
3165.396249  	-0.045884 
3166.827907  	-0.045951 
3168.259565  	-0.045997 
3169.691224  	-0.045916 
3171.122882  	-0.045965 
3172.554540  	-0.045819 
3173.986198  	-0.045985 
3175.417856  	-0.046599 
3176.849514  	-0.046609 
3178.281173  	-0.046201 
3179.712831  	-0.045987 
3181.144489  	-0.045839 
3182.576147  	-0.045923 
3184.007805  	-0.046145 
3185.439464  	-0.046086 
3186.871122  	-0.045822 
3188.302780  	-0.045694 
3189.734438  	-0.045902 
3191.166096  	-0.046124 
3192.597755  	-0.046089 
3194.029413  	-0.046034 
3195.461071  	-0.046019 
3196.892729  	-0.046167 
3198.324387  	-0.046475 
3199.756045  	-0.046367 
3201.187704  	-0.046041 
3202.619362  	-0.046194 
3204.051020  	-0.046499 
3205.482678  	-0.046371 
3206.914336  	-0.046050 
3208.345995  	-0.046001 
3209.777653  	-0.046176 
3211.209311  	-0.046335 
3212.640969  	-0.046465 
3214.072627  	-0.046533 
3215.504285  	-0.046612 
3216.935944  	-0.046749 
3218.367602  	-0.046597 
3219.799260  	-0.046265 
3221.230918  	-0.046356 
3222.662576  	-0.046767 
3224.094235  	-0.046977 
3225.525893  	-0.046858 
3226.957551  	-0.046638 
3228.389209  	-0.046613 
3229.820867  	-0.046783 
3231.252526  	-0.046866 
3232.684184  	-0.046749 
3234.115842  	-0.046665 
3235.547500  	-0.046786 
3236.979158  	-0.046869 
3238.410816  	-0.046707 
3239.842475  	-0.046511 
3241.274133  	-0.046616 
3242.705791  	-0.046956 
3244.137449  	-0.047024 
3245.569107  	-0.046767 
3247.000766  	-0.046608 
3248.432424  	-0.046607 
3249.864082  	-0.046729 
3251.295740  	-0.046849 
3252.727398  	-0.046878 
3254.159057  	-0.047172 
3255.590715  	-0.047287 
3257.022373  	-0.046660 
3258.454031  	-0.046352 
3259.885689  	-0.046816 
3261.317347  	-0.047088 
3262.749006  	-0.046923 
3264.180664  	-0.046604 
3265.612322  	-0.046503 
3267.043980  	-0.046934 
3268.475638  	-0.047251 
3269.907297  	-0.046996 
3271.338955  	-0.046735 
3272.770613  	-0.046857 
3274.202271  	-0.047155 
3275.633929  	-0.047239 
3277.065587  	-0.047084 
3278.497246  	-0.047054 
3279.928904  	-0.047243 
3281.360562  	-0.047461 
3282.792220  	-0.047379 
3284.223878  	-0.047013 
3285.655537  	-0.046944 
3287.087195  	-0.047058 
3288.518853  	-0.046911 
3289.950511  	-0.046971 
3291.382169  	-0.047303 
3292.813828  	-0.047309 
3294.245486  	-0.047192 
3295.677144  	-0.047277 
3297.108802  	-0.047275 
3298.540460  	-0.047168 
3299.972118  	-0.047131 
3301.403777  	-0.047013 
3302.835435  	-0.046821 
3304.267093  	-0.046768 
3305.698751  	-0.046839 
3307.130409  	-0.047039 
3308.562068  	-0.047355 
3309.993726  	-0.047494 
3311.425384  	-0.047346 
3312.857042  	-0.047079 
3314.288700  	-0.046986 
3315.720359  	-0.047255 
3317.152017  	-0.047539 
3318.583675  	-0.047630 
3320.015333  	-0.047642 
3321.446991  	-0.047448 
3322.878649  	-0.047385 
3324.310308  	-0.047759 
3325.741966  	-0.047849 
3327.173624  	-0.047424 
3328.605282  	-0.047271 
3330.036940  	-0.047645 
3331.468599  	-0.047821 
3332.900257  	-0.047425 
3334.331915  	-0.047229 
3335.763573  	-0.047347 
3337.195231  	-0.047068 
3338.626889  	-0.046904 
3340.058548  	-0.047184 
3341.490206  	-0.047380 
3342.921864  	-0.047663 
3344.353522  	-0.047819 
3345.785180  	-0.047675 
3347.216839  	-0.047831 
3348.648497  	-0.047782 
3350.080155  	-0.047260 
3351.511813  	-0.047134 
3352.943471  	-0.047408 
3354.375130  	-0.047781 
3355.806788  	-0.047917 
3357.238446  	-0.047506 
3358.670104  	-0.047331 
3360.101762  	-0.047569 
3361.533420  	-0.047593 
3362.965079  	-0.047546 
3364.396737  	-0.047601 
3365.828395  	-0.047829 
3367.260053  	-0.048077 
3368.691711  	-0.047822 
3370.123370  	-0.047478 
3371.555028  	-0.047545 
3372.986686  	-0.047740 
3374.418344  	-0.047807 
3375.850002  	-0.047613 
3377.281660  	-0.047499 
3378.713319  	-0.047596 
3380.144977  	-0.047592 
3381.576635  	-0.047742 
3383.008293  	-0.047713 
3384.439951  	-0.047316 
3385.871610  	-0.047528 
3387.303268  	-0.047864 
3388.734926  	-0.047665 
3390.166584  	-0.047645 
3391.598242  	-0.047563 
3393.029901  	-0.047387 
3394.461559  	-0.047505 
3395.893217  	-0.047316 
3397.324875  	-0.047261 
3398.756533  	-0.047650 
3400.188191  	-0.047627 
3401.619850  	-0.047660 
3403.051508  	-0.047956 
3404.483166  	-0.047776 
3405.914824  	-0.047534 
3407.346482  	-0.047560 
3408.778141  	-0.047610 
3410.209799  	-0.047783 
3411.641457  	-0.047948 
3413.073115  	-0.047901 
3414.504773  	-0.047772 
3415.936432  	-0.047866 
3417.368090  	-0.048181 
3418.799748  	-0.048138 
3420.231406  	-0.047668 
3421.663064  	-0.047386 
3423.094722  	-0.047471 
3424.526381  	-0.047575 
3425.958039  	-0.047586 
3427.389697  	-0.047791 
3428.821355  	-0.047920 
3430.253013  	-0.047671 
3431.684672  	-0.047704 
3433.116330  	-0.047852 
3434.547988  	-0.047638 
3435.979646  	-0.047771 
3437.411304  	-0.048027 
3438.842962  	-0.047878 
3440.274621  	-0.047714 
3441.706279  	-0.047402 
3443.137937  	-0.047350 
3444.569595  	-0.047892 
3446.001253  	-0.048057 
3447.432912  	-0.048034 
3448.864570  	-0.048188 
3450.296228  	-0.048091 
3451.727886  	-0.048075 
3453.159544  	-0.047884 
3454.591203  	-0.047563 
3456.022861  	-0.047874 
3457.454519  	-0.047841 
3458.886177  	-0.047313 
3460.317835  	-0.047593 
3461.749493  	-0.048033 
3463.181152  	-0.047974 
3464.612810  	-0.047992 
3466.044468  	-0.047989 
3467.476126  	-0.047865 
3468.907784  	-0.047915 
3470.339443  	-0.048215 
3471.771101  	-0.048346 
3473.202759  	-0.047872 
3474.634417  	-0.047532 
3476.066075  	-0.047790 
3477.497734  	-0.047896 
3478.929392  	-0.047734 
3480.361050  	-0.047588 
3481.792708  	-0.047507 
3483.224366  	-0.047561 
3484.656024  	-0.047532 
3486.087683  	-0.047611 
3487.519341  	-0.048057 
3488.950999  	-0.048342 
3490.382657  	-0.048245 
3491.814315  	-0.048046 
3493.245974  	-0.047926 
3494.677632  	-0.047947 
3496.109290  	-0.047889 
3497.540948  	-0.047747 
3498.972606  	-0.047626 
3500.404264  	-0.047451 
3501.835923  	-0.047421 
3503.267581  	-0.047475 
3504.699239  	-0.047374 
3506.130897  	-0.047424 
3507.562555  	-0.047672 
3508.994214  	-0.047826 
3510.425872  	-0.047722 
3511.857530  	-0.047591 
3513.289188  	-0.047713 
3514.720846  	-0.047687 
3516.152505  	-0.047348 
3517.584163  	-0.047218 
3519.015821  	-0.047235 
3520.447479  	-0.047068 
3521.879137  	-0.046897 
3523.310795  	-0.046944 
3524.742454  	-0.046922 
3526.174112  	-0.046415 
3527.605770  	-0.046102 
3529.037428  	-0.046481 
3530.469086  	-0.046763 
3531.900745  	-0.047008 
3533.332403  	-0.047346 
3534.764061  	-0.047281 
3536.195719  	-0.047360 
3537.627377  	-0.047387 
3539.059035  	-0.046794 
3540.490694  	-0.046830 
3541.922352  	-0.047425 
3543.354010  	-0.047277 
3544.785668  	-0.046998 
3546.217326  	-0.047397 
3547.648985  	-0.047839 
3549.080643  	-0.047739 
3550.512301  	-0.047343 
3551.943959  	-0.047141 
3553.375617  	-0.047225 
3554.807276  	-0.047494 
3556.238934  	-0.047696 
3557.670592  	-0.047496 
3559.102250  	-0.047549 
3560.533908  	-0.048065 
3561.965566  	-0.048082 
3563.397225  	-0.047754 
3564.828883  	-0.047327 
3566.260541  	-0.046778 
3567.692199  	-0.047190 
3569.123857  	-0.047846 
3570.555516  	-0.047665 
3571.987174  	-0.047738 
3573.418832  	-0.048020 
3574.850490  	-0.047865 
3576.282148  	-0.047567 
3577.713807  	-0.047827 
3579.145465  	-0.048579 
3580.577123  	-0.048605 
3582.008781  	-0.047935 
3583.440439  	-0.047782 
3584.872097  	-0.047560 
3586.303756  	-0.047058 
3587.735414  	-0.047788 
3589.167072  	-0.048844 
3590.598730  	-0.048563 
3592.030388  	-0.048221 
3593.462047  	-0.048027 
3594.893705  	-0.047769 
3596.325363  	-0.048043 
3597.757021  	-0.048336 
3599.188679  	-0.048046 
3600.620337  	-0.048336 
3602.051996  	-0.049157 
3603.483654  	-0.048970 
3604.915312  	-0.048705 
3606.346970  	-0.048964 
3607.778628  	-0.048685 
3609.210287  	-0.048692 
3610.641945  	-0.049215 
3612.073603  	-0.048829 
3613.505261  	-0.048645 
3614.936919  	-0.048948 
3616.368578  	-0.048305 
3617.800236  	-0.047619 
3619.231894  	-0.048276 
3620.663552  	-0.049593 
3622.095210  	-0.049478 
3623.526868  	-0.048599 
3624.958527  	-0.048466 
3626.390185  	-0.048228 
3627.821843  	-0.047179 
3629.253501  	-0.047773 
3630.685159  	-0.049259 
3632.116818  	-0.048674 
3633.548476  	-0.048425 
3634.980134  	-0.048415 
3636.411792  	-0.048371 
3637.843450  	-0.048881 
3639.275109  	-0.048953 
3640.706767  	-0.048549 
3642.138425  	-0.048692 
3643.570083  	-0.048765 
3645.001741  	-0.048369 
3646.433399  	-0.047913 
3647.865058  	-0.047588 
3649.296716  	-0.047583 
3650.728374  	-0.048213 
3652.160032  	-0.049124 
3653.591690  	-0.048592 
3655.023349  	-0.047552 
3656.455007  	-0.047925 
3657.886665  	-0.048756 
3659.318323  	-0.048220 
3660.749981  	-0.048086 
3662.181639  	-0.048503 
3663.613298  	-0.048565 
3665.044956  	-0.048398 
3666.476614  	-0.047994 
3667.908272  	-0.047582 
3669.339930  	-0.047762 
3670.771589  	-0.048572 
3672.203247  	-0.048074 
3673.634905  	-0.046677 
3675.066563  	-0.046839 
3676.498221  	-0.049907 
3677.929880  	-0.049387 
3679.361538  	-0.048592 
3680.793196  	-0.048968 
3682.224854  	-0.048724 
3683.656512  	-0.048513 
3685.088170  	-0.048470 
3686.519829  	-0.047909 
3687.951487  	-0.048390 
3689.383145  	-0.049929 
3690.814803  	-0.049772 
3692.246461  	-0.049545 
3693.678120  	-0.049468 
3695.109778  	-0.049030 
3696.541436  	-0.048947 
3697.973094  	-0.048866 
3699.404752  	-0.048500 
3700.836411  	-0.048744 
3702.268069  	-0.049606 
3703.699727  	-0.049706 
3705.131385  	-0.049256 
3706.563043  	-0.049054 
3707.994701  	-0.048994 
3709.426360  	-0.048930 
3710.858018  	-0.048801 
3712.289676  	-0.048720 
3713.721334  	-0.049662 
3715.152992  	-0.050357 
3716.584651  	-0.049707 
3718.016309  	-0.049141 
3719.447967  	-0.049362 
3720.879625  	-0.049004 
3722.311283  	-0.048585 
3723.742941  	-0.049056 
3725.174600  	-0.049178 
3726.606258  	-0.049099 
3728.037916  	-0.049409 
3729.469574  	-0.049265 
3730.901232  	-0.049118 
3732.332891  	-0.049491 
3733.764549  	-0.049162 
3735.196207  	-0.049003 
3736.627865  	-0.050946 
3738.059523  	-0.051268 
3739.491182  	-0.050278 
3740.922840  	-0.050146 
3742.354498  	-0.049849 
3743.786156  	-0.049826 
3745.217814  	-0.052186 
3746.649472  	-0.051184 
3748.081131  	-0.049389 
3749.512789  	-0.049893 
3750.944447  	-0.051367 
3752.376105  	-0.051771 
3753.807763  	-0.051498 
3755.239422  	-0.050409 
3756.671080  	-0.050281 
3758.102738  	-0.050790 
3759.534396  	-0.050244 
3760.966054  	-0.050234 
3762.397712  	-0.050568 
3763.829371  	-0.049946 
3765.261029  	-0.049703 
3766.692687  	-0.050092 
3768.124345  	-0.049995 
3769.556003  	-0.050082 
3770.987662  	-0.050482 
3772.419320  	-0.050581 
3773.850978  	-0.050493 
3775.282636  	-0.050409 
3776.714294  	-0.050542 
3778.145953  	-0.050494 
3779.577611  	-0.050246 
3781.009269  	-0.050383 
3782.440927  	-0.050291 
3783.872585  	-0.049889 
3785.304243  	-0.049834 
3786.735902  	-0.050119 
3788.167560  	-0.050221 
3789.599218  	-0.049732 
3791.030876  	-0.049180 
3792.462534  	-0.049531 
3793.894193  	-0.050045 
3795.325851  	-0.049834 
3796.757509  	-0.049507 
3798.189167  	-0.049393 
3799.620825  	-0.049133 
3801.052484  	-0.049299 
3802.484142  	-0.050609 
3803.915800  	-0.050522 
3805.347458  	-0.049536 
3806.779116  	-0.049848 
3808.210774  	-0.051243 
3809.642433  	-0.050654 
3811.074091  	-0.049949 
3812.505749  	-0.050023 
3813.937407  	-0.049713 
3815.369065  	-0.049630 
3816.800724  	-0.050702 
3818.232382  	-0.050159 
3819.664040  	-0.049128 
3821.095698  	-0.050249 
3822.527356  	-0.051855 
3823.959014  	-0.050375 
3825.390673  	-0.049541 
3826.822331  	-0.050358 
3828.253989  	-0.050570 
3829.685647  	-0.049775 
3831.117305  	-0.049802 
3832.548964  	-0.050371 
3833.980622  	-0.050242 
3835.412280  	-0.050029 
3836.843938  	-0.050201 
3838.275596  	-0.050276 
3839.707255  	-0.050002 
3841.138913  	-0.049936 
3842.570571  	-0.050358 
3844.002229  	-0.050921 
3845.433887  	-0.050898 
3846.865545  	-0.050276 
3848.297204  	-0.049966 
3849.728862  	-0.050043 
3851.160520  	-0.049674 
3852.592178  	-0.049636 
3854.023836  	-0.051683 
3855.455495  	-0.051666 
3856.887153  	-0.050700 
3858.318811  	-0.050579 
3859.750469  	-0.050301 
3861.182127  	-0.050080 
3862.613786  	-0.050000 
3864.045444  	-0.049440 
3865.477102  	-0.049737 
3866.908760  	-0.050165 
3868.340418  	-0.049229 
3869.772076  	-0.049290 
3871.203735  	-0.050900 
3872.635393  	-0.050172 
3874.067051  	-0.049702 
3875.498709  	-0.050555 
3876.930367  	-0.050176 
3878.362026  	-0.049407 
3879.793684  	-0.049521 
3881.225342  	-0.050044 
3882.657000  	-0.049897 
3884.088658  	-0.049205 
3885.520316  	-0.049180 
3886.951975  	-0.050615 
3888.383633  	-0.050644 
3889.815291  	-0.049968 
3891.246949  	-0.050272 
3892.678607  	-0.050641 
3894.110266  	-0.050253 
3895.541924  	-0.050036 
3896.973582  	-0.049695 
3898.405240  	-0.049430 
3899.836898  	-0.049784 
3901.268557  	-0.049964 
3902.700215  	-0.049862 
3904.131873  	-0.050020 
3905.563531  	-0.050284 
3906.995189  	-0.050633 
3908.426847  	-0.050761 
3909.858506  	-0.050532 
3911.290164  	-0.050540 
3912.721822  	-0.050813 
3914.153480  	-0.050727 
3915.585138  	-0.050285 
3917.016797  	-0.049912 
3918.448455  	-0.049919 
3919.880113  	-0.050041 
3921.311771  	-0.050045 
3922.743429  	-0.049999 
3924.175088  	-0.050049 
3925.606746  	-0.050287 
3927.038404  	-0.050230 
3928.470062  	-0.049910 
3929.901720  	-0.049989 
3931.333378  	-0.050206 
3932.765037  	-0.050186 
3934.196695  	-0.050408 
3935.628353  	-0.050509 
3937.060011  	-0.050344 
3938.491669  	-0.050356 
3939.923328  	-0.050139 
3941.354986  	-0.049675 
3942.786644  	-0.049729 
3944.218302  	-0.050142 
3945.649960  	-0.050271 
3947.081618  	-0.050231 
3948.513277  	-0.050325 
3949.944935  	-0.050616 
3951.376593  	-0.050582 
3952.808251  	-0.050184 
3954.239909  	-0.050102 
3955.671568  	-0.050408 
3957.103226  	-0.050736 
3958.534884  	-0.050942 
3959.966542  	-0.050908 
3961.398200  	-0.050729 
3962.829859  	-0.050682 
3964.261517  	-0.050740 
3965.693175  	-0.050718 
3967.124833  	-0.050639 
3968.556491  	-0.050560 
3969.988149  	-0.050349 
3971.419808  	-0.050165 
3972.851466  	-0.050362 
3974.283124  	-0.050611 
3975.714782  	-0.050479 
3977.146440  	-0.050258 
3978.578099  	-0.050242 
3980.009757  	-0.050355 
3981.441415  	-0.050479 
3982.873073  	-0.050443 
3984.304731  	-0.050314 
3985.736389  	-0.050478 
3987.168048  	-0.050639 
3988.599706  	-0.050163 
3990.031364  	-0.049824 
3991.463022  	-0.050287 
3992.894680  	-0.050435 
3994.326339  	-0.050303 
3995.757997  	-0.050800 
3997.189655  	-0.050815 
3998.621313  	-0.050070 
4000.052971  	-0.050007 