##TITLE=No Description
##DATA TYPE=INFRARED SPECTRUM
##XUNITS=1/CM
##YUNITS=%T
399.432634  	83.380156 
400.864292  	77.320073 
402.295950  	79.942606 
403.727608  	81.317256 
405.159267  	78.649925 
406.590925  	85.110845 
408.022583  	92.221661 
409.454241  	88.353431 
410.885899  	84.290056 
412.317558  	86.733647 
413.749216  	90.725799 
415.180874  	89.970879 
416.612532  	86.264217 
418.044190  	82.648136 
419.475848  	83.183327 
420.907507  	88.822832 
422.339165  	91.446392 
423.770823  	89.891136 
425.202481  	88.966623 
426.634139  	90.598930 
428.065798  	92.808093 
429.497456  	94.443207 
430.929114  	93.176025 
432.360772  	91.166620 
433.792430  	92.741368 
435.224089  	94.746049 
436.655747  	94.287796 
438.087405  	93.437972 
439.519063  	93.926141 
440.950721  	95.571427 
442.382379  	95.428052 
443.814038  	92.220598 
445.245696  	91.693025 
446.677354  	94.713713 
448.109012  	95.045461 
449.540670  	92.073973 
450.972329  	90.804278 
452.403987  	92.176404 
453.835645  	93.869309 
455.267303  	94.231816 
456.698961  	93.274236 
458.130619  	92.477944 
459.562278  	92.913288 
460.993936  	92.463000 
462.425594  	92.114988 
463.857252  	93.388111 
465.288910  	92.784636 
466.720569  	90.128652 
468.152227  	90.030841 
469.583885  	91.330097 
471.015543  	91.009663 
472.447201  	91.362870 
473.878860  	92.628699 
475.310518  	92.246407 
476.742176  	91.453421 
478.173834  	91.122339 
479.605492  	90.212309 
481.037150  	89.354900 
482.468809  	89.962880 
483.900467  	90.686678 
485.332125  	89.433365 
486.763783  	87.810524 
488.195441  	88.099952 
489.627100  	88.846731 
491.058758  	88.060150 
492.490416  	87.144986 
493.922074  	87.274959 
495.353732  	87.419579 
496.785391  	87.730369 
498.217049  	88.518525 
499.648707  	88.950541 
501.080365  	89.189732 
502.512023  	89.310530 
503.943681  	88.835466 
505.375340  	88.538923 
506.806998  	88.703542 
508.238656  	88.786580 
509.670314  	89.043344 
511.101972  	89.502458 
512.533631  	89.273601 
513.965289  	88.566475 
515.396947  	88.475835 
516.828605  	88.787776 
518.260263  	88.423572 
519.691921  	87.644659 
521.123580  	87.007423 
522.555238  	86.329887 
523.986896  	85.776496 
525.418554  	85.319319 
526.850212  	84.564975 
528.281871  	83.981879 
529.713529  	83.595623 
531.145187  	82.633455 
532.576845  	81.336722 
534.008503  	80.370093 
535.440162  	79.426229 
536.871820  	78.319897 
538.303478  	77.488261 
539.735136  	76.762661 
541.166794  	75.503139 
542.598452  	73.988806 
544.030111  	72.819689 
545.461769  	71.685611 
546.893427  	70.315651 
548.325085  	68.883603 
549.756743  	67.553420 
551.188402  	66.938348 
552.620060  	67.071642 
554.051718  	67.209180 
555.483376  	67.679438 
556.915034  	68.970090 
558.346692  	70.630631 
559.778351  	72.239009 
561.210009  	73.714494 
562.641667  	75.424125 
564.073325  	77.613103 
565.504983  	80.202545 
566.936642  	83.648220 
568.368300  	87.695394 
569.799958  	90.718626 
571.231616  	91.784652 
572.663274  	91.255192 
574.094933  	90.318162 
575.526591  	89.892313 
576.958249  	89.992191 
578.389907  	90.397479 
579.821565  	91.025678 
581.253223  	91.449288 
582.684882  	91.589423 
584.116540  	91.896133 
585.548198  	92.293000 
586.979856  	92.684631 
588.411514  	93.204906 
589.843173  	93.531225 
591.274831  	93.673482 
592.706489  	93.978470 
594.138147  	94.115667 
595.569805  	94.226883 
597.001464  	94.797444 
598.433122  	95.177178 
599.864780  	95.063192 
601.296438  	95.162056 
602.728096  	95.478802 
604.159754  	95.706747 
605.591413  	95.908807 
607.023071  	95.984328 
608.454729  	95.952374 
609.886387  	95.962482 
611.318045  	96.083891 
612.749704  	96.320618 
614.181362  	96.383918 
615.613020  	96.278438 
617.044678  	96.393276 
618.476336  	96.527304 
619.907994  	96.402771 
621.339653  	96.209199 
622.771311  	95.930196 
624.202969  	95.541958 
625.634627  	95.265159 
627.066285  	95.071262 
628.497944  	94.807994 
629.929602  	94.472296 
631.361260  	94.137572 
632.792918  	93.989967 
634.224576  	94.038757 
635.656235  	94.177279 
637.087893  	94.494186 
638.519551  	94.886017 
639.951209  	95.244526 
641.382867  	95.643858 
642.814525  	95.806263 
644.246184  	95.598620 
645.677842  	95.561947 
647.109500  	95.736591 
648.541158  	95.643541 
649.972816  	95.507381 
651.404475  	95.502302 
652.836133  	95.332953 
654.267791  	95.282977 
655.699449  	95.532844 
657.131107  	95.586482 
658.562766  	95.387133 
659.994424  	95.266290 
661.426082  	95.267336 
662.857740  	95.370154 
664.289398  	95.398263 
665.721056  	94.873574 
667.152715  	93.302856 
668.584373  	92.216391 
670.016031  	93.645284 
671.447689  	94.266847 
672.879347  	93.947353 
674.311006  	93.550510 
675.742664  	93.410085 
677.174322  	93.336402 
678.605980  	93.212872 
680.037638  	92.931918 
681.469296  	92.575443 
682.900955  	91.978525 
684.332613  	91.021657 
685.764271  	90.229798 
687.195929  	89.789426 
688.627587  	89.662173 
690.059246  	89.910087 
691.490904  	90.101074 
692.922562  	90.043959 
694.354220  	89.801366 
695.785878  	89.283931 
697.217537  	88.772406 
698.649195  	88.293866 
700.080853  	87.377972 
701.512511  	86.297509 
702.944169  	85.613898 
704.375827  	85.187462 
705.807486  	84.781943 
707.239144  	84.651556 
708.670802  	84.950222 
710.102460  	85.366064 
711.534118  	85.876622 
712.965777  	86.547828 
714.397435  	87.034893 
715.829093  	87.311160 
717.260751  	87.612527 
718.692409  	87.840025 
720.124067  	87.820066 
721.555726  	87.516696 
722.987384  	87.054090 
724.419042  	86.627869 
725.850700  	86.301539 
727.282358  	86.090168 
728.714017  	85.943899 
730.145675  	85.818513 
731.577333  	85.856186 
733.008991  	86.055224 
734.440649  	86.321168 
735.872308  	86.585581 
737.303966  	86.577889 
738.735624  	86.309422 
740.167282  	86.028828 
741.598940  	85.638500 
743.030598  	85.126187 
744.462257  	84.578300 
745.893915  	83.873745 
747.325573  	83.053709 
748.757231  	82.139155 
750.188889  	81.111765 
751.620548  	80.166638 
753.052206  	79.326558 
754.483864  	78.571140 
755.915522  	77.937087 
757.347180  	77.363700 
758.778839  	77.007572 
760.210497  	76.962516 
761.642155  	77.011852 
763.073813  	77.017886 
764.505471  	76.968000 
765.937129  	76.934417 
767.368788  	77.052104 
768.800446  	77.428011 
770.232104  	78.181841 
771.663762  	79.272568 
773.095420  	80.556299 
774.527079  	81.985860 
775.958737  	83.415598 
777.390395  	84.589685 
778.822053  	85.460804 
780.253711  	86.158296 
781.685369  	86.744627 
783.117028  	87.249691 
784.548686  	87.649201 
785.980344  	87.875851 
787.412002  	88.006231 
788.843660  	88.133540 
790.275319  	88.231131 
791.706977  	88.294945 
793.138635  	88.254757 
794.570293  	87.956642 
796.001951  	87.461338 
797.433610  	86.849926 
798.865268  	85.946556 
800.296926  	84.663225 
801.728584  	83.042515 
803.160242  	81.060984 
804.591900  	78.909014 
806.023559  	76.868095 
807.455217  	75.053722 
808.886875  	73.504163 
810.318533  	72.132332 
811.750191  	71.072052 
813.181850  	70.486615 
814.613508  	70.192013 
816.045166  	70.216490 
817.476824  	70.508137 
818.908482  	70.661732 
820.340141  	70.529267 
821.771799  	70.049689 
823.203457  	69.130187 
824.635115  	67.870656 
826.066773  	66.505928 
827.498431  	65.569306 
828.930090  	65.468779 
830.361748  	66.134210 
831.793406  	67.448209 
833.225064  	69.198518 
834.656722  	71.214786 
836.088381  	73.354075 
837.520039  	75.350843 
838.951697  	77.177547 
840.383355  	78.798929 
841.815013  	80.084306 
843.246671  	81.223421 
844.678330  	82.441174 
846.109988  	83.784880 
847.541646  	85.241344 
848.973304  	86.697957 
850.404962  	88.161652 
851.836621  	89.696795 
853.268279  	91.140772 
854.699937  	92.356923 
856.131595  	93.414006 
857.563253  	94.299012 
858.994912  	94.910327 
860.426570  	95.314083 
861.858228  	95.604843 
863.289886  	95.732617 
864.721544  	95.611252 
866.153202  	95.251835 
867.584861  	94.801909 
869.016519  	94.311302 
870.448177  	93.616705 
871.879835  	92.698189 
873.311493  	91.769239 
874.743152  	90.840421 
876.174810  	89.721365 
877.606468  	88.483466 
879.038126  	87.306683 
880.469784  	86.174894 
881.901443  	85.062472 
883.333101  	84.024431 
884.764759  	83.276620 
886.196417  	83.006857 
887.628075  	83.176960 
889.059733  	83.963244 
890.491392  	85.550539 
891.923050  	87.749562 
893.354708  	90.240823 
894.786366  	92.543099 
896.218024  	94.255942 
897.649683  	95.364589 
899.081341  	95.991815 
900.512999  	96.261139 
901.944657  	96.362502 
903.376315  	96.389735 
904.807973  	96.307667 
906.239632  	96.121298 
907.671290  	95.912301 
909.102948  	95.713315 
910.534606  	95.426365 
911.966264  	95.001093 
913.397923  	94.515685 
914.829581  	94.055858 
916.261239  	93.672057 
917.692897  	93.333708 
919.124555  	93.122677 
920.556214  	93.225185 
921.987872  	93.521945 
923.419530  	93.889265 
924.851188  	94.337740 
926.282846  	94.594562 
927.714504  	94.517459 
929.146163  	94.272637 
930.577821  	93.837413 
932.009479  	93.247530 
933.441137  	92.728235 
934.872795  	92.367421 
936.304454  	92.155544 
937.736112  	91.968782 
939.167770  	91.716915 
940.599428  	91.490229 
942.031086  	91.326382 
943.462744  	91.245900 
944.894403  	91.292882 
946.326061  	91.476738 
947.757719  	91.790051 
949.189377  	92.063333 
950.621035  	92.181520 
952.052694  	92.211824 
953.484352  	92.032506 
954.916010  	91.553320 
956.347668  	90.992314 
957.779326  	90.513708 
959.210985  	90.188489 
960.642643  	90.061035 
962.074301  	90.050347 
963.505959  	90.056536 
964.937617  	90.076910 
966.369275  	90.154004 
967.800934  	90.192208 
969.232592  	90.112576 
970.664250  	90.042950 
972.095908  	89.949002 
973.527566  	89.701249 
974.959225  	89.396315 
976.390883  	89.050610 
977.822541  	88.620333 
979.254199  	88.145747 
980.685857  	87.558466 
982.117516  	86.839138 
983.549174  	85.997525 
984.980832  	84.979463 
986.412490  	83.811274 
987.844148  	82.452129 
989.275806  	80.989430 
990.707465  	79.687684 
992.139123  	78.602330 
993.570781  	77.822476 
995.002439  	77.341472 
996.434097  	76.831151 
997.865756  	76.006110 
999.297414  	74.588029 
1000.729072  	72.504685 
1002.160730  	70.085365 
1003.592388  	67.785722 
1005.024046  	66.253258 
1006.455705  	65.600951 
1007.887363  	65.158032 
1009.319021  	64.360001 
1010.750679  	62.427281 
1012.182337  	59.208859 
1013.613996  	57.008902 
1015.045654  	58.699418 
1016.477312  	64.456454 
1017.908970  	71.811467 
1019.340628  	78.563673 
1020.772287  	83.880305 
1022.203945  	87.737958 
1023.635603  	90.683276 
1025.067261  	92.908420 
1026.498919  	94.220623 
1027.930577  	94.827070 
1029.362236  	95.059131 
1030.793894  	95.009668 
1032.225552  	94.804636 
1033.657210  	94.512595 
1035.088868  	94.096344 
1036.520527  	93.678094 
1037.952185  	93.288071 
1039.383843  	92.856547 
1040.815501  	92.482231 
1042.247159  	92.162630 
1043.678818  	91.812500 
1045.110476  	91.450802 
1046.542134  	91.070284 
1047.973792  	90.654853 
1049.405450  	90.208467 
1050.837108  	89.809835 
1052.268767  	89.519544 
1053.700425  	89.174498 
1055.132083  	88.719256 
1056.563741  	88.266863 
1057.995399  	87.796009 
1059.427058  	87.257617 
1060.858716  	86.617900 
1062.290374  	85.919184 
1063.722032  	85.203680 
1065.153690  	84.310270 
1066.585348  	83.240227 
1068.017007  	82.038214 
1069.448665  	80.549393 
1070.880323  	78.814647 
1072.311981  	76.780785 
1073.743639  	74.261491 
1075.175298  	71.121121 
1076.606956  	67.203096 
1078.038614  	63.567879 
1079.470272  	62.001211 
1080.901930  	63.024946 
1082.333589  	66.314956 
1083.765247  	70.832350 
1085.196905  	75.389613 
1086.628563  	79.242724 
1088.060221  	81.734659 
1089.491879  	82.760939 
1090.923538  	82.772362 
1092.355196  	82.086484 
1093.786854  	80.931505 
1095.218512  	79.424981 
1096.650170  	77.554103 
1098.081829  	75.605275 
1099.513487  	73.851020 
1100.945145  	72.653542 
1102.376803  	72.336984 
1103.808461  	72.495829 
1105.240120  	72.744722 
1106.671778  	72.892438 
1108.103436  	72.854847 
1109.535094  	72.968480 
1110.966752  	73.280713 
1112.398410  	73.671562 
1113.830069  	74.144670 
1115.261727  	74.430526 
1116.693385  	74.574419 
1118.125043  	74.687382 
1119.556701  	74.495030 
1120.988360  	74.069996 
1122.420018  	73.525339 
1123.851676  	72.798586 
1125.283334  	71.987430 
1126.714992  	71.002175 
1128.146650  	69.940779 
1129.578309  	68.940632 
1131.009967  	67.786215 
1132.441625  	66.631365 
1133.873283  	65.471740 
1135.304941  	64.109491 
1136.736600  	62.815618 
1138.168258  	61.461014 
1139.599916  	59.948527 
1141.031574  	58.556039 
1142.463232  	57.120411 
1143.894891  	55.698148 
1145.326549  	54.342882 
1146.758207  	52.897773 
1148.189865  	51.619715 
1149.621523  	50.379560 
1151.053181  	49.127210 
1152.484840  	48.128615 
1153.916498  	47.146227 
1155.348156  	46.376599 
1156.779814  	45.976638 
1158.211472  	45.759856 
1159.643131  	46.155393 
1161.074789  	47.136053 
1162.506447  	48.592942 
1163.938105  	50.797177 
1165.369763  	53.457396 
1166.801421  	56.513135 
1168.233080  	59.690633 
1169.664738  	62.156416 
1171.096396  	63.522176 
1172.528054  	63.389818 
1173.959712  	61.650046 
1175.391371  	59.135616 
1176.823029  	56.581810 
1178.254687  	54.419295 
1179.686345  	52.736979 
1181.118003  	51.076039 
1182.549662  	49.519971 
1183.981320  	48.210855 
1185.412978  	47.272775 
1186.844636  	47.186998 
1188.276294  	47.631308 
1189.707952  	48.430127 
1191.139611  	49.760405 
1192.571269  	51.207906 
1194.002927  	52.855100 
1195.434585  	54.789189 
1196.866243  	56.766758 
1198.297902  	58.937959 
1199.729560  	61.125245 
1201.161218  	63.248009 
1202.592876  	65.383608 
1204.024534  	67.041040 
1205.456193  	67.902942 
1206.887851  	67.647358 
1208.319509  	65.932069 
1209.751167  	63.303341 
1211.182825  	60.391788 
1212.614483  	57.665259 
1214.046142  	55.759121 
1215.477800  	54.511741 
1216.909458  	53.811832 
1218.341116  	53.706698 
1219.772774  	53.827020 
1221.204433  	54.300362 
1222.636091  	54.990087 
1224.067749  	55.637219 
1225.499407  	56.549737 
1226.931065  	57.513546 
1228.362723  	58.417759 
1229.794382  	59.425545 
1231.226040  	60.325192 
1232.657698  	61.300562 
1234.089356  	62.345697 
1235.521014  	63.225172 
1236.952673  	64.197762 
1238.384331  	65.148034 
1239.815989  	65.996258 
1241.247647  	66.965601 
1242.679305  	67.893100 
1244.110964  	68.884731 
1245.542622  	70.026204 
1246.974280  	71.149657 
1248.405938  	72.472642 
1249.837596  	73.982821 
1251.269254  	75.608900 
1252.700913  	77.490941 
1254.132571  	79.475201 
1255.564229  	81.601907 
1256.995887  	83.909110 
1258.427545  	86.181498 
1259.859204  	88.480530 
1261.290862  	90.777173 
1262.722520  	92.888324 
1264.154178  	94.816101 
1265.585836  	96.502840 
1267.017495  	97.856812 
1268.449153  	98.940580 
1269.880811  	99.815944 
1271.312469  	100.472443 
1272.744127  	100.936241 
1274.175785  	101.230061 
1275.607444  	101.371068 
1277.039102  	101.364761 
1278.470760  	101.166810 
1279.902418  	100.845754 
1281.334076  	100.487320 
1282.765735  	100.052321 
1284.197393  	99.544489 
1285.629051  	99.020173 
1287.060709  	98.554552 
1288.492367  	98.181329 
1289.924025  	97.864360 
1291.355684  	97.686071 
1292.787342  	97.785324 
1294.219000  	98.146982 
1295.650658  	98.681033 
1297.082316  	99.381406 
1298.513975  	100.198239 
1299.945633  	101.001959 
1301.377291  	101.686560 
1302.808949  	102.193699 
1304.240607  	102.509970 
1305.672266  	102.571388 
1307.103924  	102.393928 
1308.535582  	102.133826 
1309.967240  	102.049324 
1311.398898  	102.351563 
1312.830556  	103.000830 
1314.262215  	103.819981 
1315.693873  	104.628477 
1317.125531  	105.224630 
1318.557189  	105.598883 
1319.988847  	105.905582 
1321.420506  	106.085877 
1322.852164  	106.174881 
1324.283822  	106.238163 
1325.715480  	106.250149 
1327.147138  	106.316059 
1328.578796  	106.377719 
1330.010455  	106.369927 
1331.442113  	106.394454 
1332.873771  	106.397435 
1334.305429  	106.401504 
1335.737087  	106.413375 
1337.168746  	106.331151 
1338.600404  	106.285938 
1340.032062  	106.282635 
1341.463720  	106.266002 
1342.895378  	106.323161 
1344.327037  	106.320532 
1345.758695  	106.264075 
1347.190353  	106.215020 
1348.622011  	106.076405 
1350.053669  	106.016525 
1351.485327  	106.010226 
1352.916986  	105.887284 
1354.348644  	105.766355 
1355.780302  	105.539809 
1357.211960  	105.135418 
1358.643618  	104.440594 
1360.075277  	103.059420 
1361.506935  	101.062768 
1362.938593  	98.925178 
1364.370251  	98.035647 
1365.801909  	98.811927 
1367.233568  	100.463016 
1368.665226  	102.299409 
1370.096884  	103.759119 
1371.528542  	104.597801 
1372.960200  	104.903825 
1374.391858  	105.098208 
1375.823517  	105.226994 
1377.255175  	105.174477 
1378.686833  	104.994149 
1380.118491  	104.652337 
1381.550149  	104.120046 
1382.981808  	103.156293 
1384.413466  	102.027099 
1385.845124  	101.255067 
1387.276782  	101.180425 
1388.708440  	101.845529 
1390.140098  	102.646722 
1391.571757  	103.429859 
1393.003415  	103.921189 
1394.435073  	104.099250 
1395.866731  	104.177942 
1397.298389  	104.017981 
1398.730048  	103.621486 
1400.161706  	103.173440 
1401.593364  	102.559324 
1403.025022  	101.689001 
1404.456680  	100.709420 
1405.888339  	99.615187 
1407.319997  	98.617566 
1408.751655  	98.087779 
1410.183313  	98.021570 
1411.614971  	98.608230 
1413.046629  	99.729087 
1414.478288  	100.940533 
1415.909946  	102.211724 
1417.341604  	103.208330 
1418.773262  	103.906684 
1420.204920  	104.712963 
1421.636579  	105.034795 
1423.068237  	105.135225 
1424.499895  	105.396745 
1425.931553  	105.493388 
1427.363211  	105.478615 
1428.794870  	105.475274 
1430.226528  	105.390135 
1431.658186  	105.415266 
1433.089844  	105.376933 
1434.521502  	105.208164 
1435.953160  	105.116675 
1437.384819  	104.919970 
1438.816477  	104.678504 
1440.248135  	104.367027 
1441.679793  	103.892364 
1443.111451  	103.571434 
1444.543110  	103.237120 
1445.974768  	102.826907 
1447.406426  	102.560306 
1448.838084  	102.189825 
1450.269742  	101.895123 
1451.701400  	101.826672 
1453.133059  	101.770329 
1454.564717  	101.689336 
1455.996375  	101.422797 
1457.428033  	100.683942 
1458.859691  	100.057477 
1460.291350  	99.316939 
1461.723008  	98.678488 
1463.154666  	98.252917 
1464.586324  	97.966523 
1466.017982  	98.211091 
1467.449641  	98.467464 
1468.881299  	98.724291 
1470.312957  	99.009547 
1471.744615  	98.954395 
1473.176273  	99.153872 
1474.607931  	99.476073 
1476.039590  	99.350021 
1477.471248  	99.381395 
1478.902906  	99.234559 
1480.334564  	98.757076 
1481.766222  	98.352167 
1483.197881  	97.646719 
1484.629539  	96.662640 
1486.061197  	95.593825 
1487.492855  	93.949991 
1488.924513  	92.189506 
1490.356172  	90.230317 
1491.787830  	87.478421 
1493.219488  	85.308358 
1494.651146  	83.142694 
1496.082804  	80.098942 
1497.514462  	77.302517 
1498.946121  	74.805336 
1500.377779  	72.664770 
1501.809437  	71.886945 
1503.241095  	71.679618 
1504.672753  	72.078116 
1506.104412  	73.919021 
1507.536070  	77.230466 
1508.967728  	81.208514 
1510.399386  	85.321172 
1511.831044  	89.386363 
1513.262702  	93.316979 
1514.694361  	96.296642 
1516.126019  	98.422335 
1517.557677  	100.687508 
1518.989335  	102.084277 
1520.420993  	102.608527 
1521.852652  	103.683216 
1523.284310  	104.433906 
1524.715968  	104.574636 
1526.147626  	105.064013 
1527.579284  	105.455466 
1529.010943  	105.683698 
1530.442601  	105.972473 
1531.874259  	105.948198 
1533.305917  	105.985772 
1534.737575  	106.354924 
1536.169233  	106.384567 
1537.600892  	106.371527 
1539.032550  	106.295043 
1540.464208  	106.225649 
1541.895866  	106.577183 
1543.327524  	106.605555 
1544.759183  	106.641591 
1546.190841  	106.850801 
1547.622499  	106.767784 
1549.054157  	106.667233 
1550.485815  	106.743082 
1551.917473  	106.725350 
1553.349132  	106.672759 
1554.780790  	106.652555 
1556.212448  	106.574851 
1557.644106  	106.389877 
1559.075764  	106.212563 
1560.507423  	106.789090 
1561.939081  	106.848090 
1563.370739  	106.728363 
1564.802397  	106.724448 
1566.234055  	106.752765 
1567.665714  	106.657451 
1569.097372  	106.589989 
1570.529030  	106.662008 
1571.960688  	106.736814 
1573.392346  	106.701865 
1574.824004  	106.563451 
1576.255663  	106.534043 
1577.687321  	106.624969 
1579.118979  	106.555718 
1580.550637  	106.432721 
1581.982295  	106.219973 
1583.413954  	105.891312 
1584.845612  	105.484286 
1586.277270  	104.992087 
1587.708928  	104.436682 
1589.140586  	103.839639 
1590.572245  	103.306801 
1592.003903  	102.906773 
1593.435561  	102.754016 
1594.867219  	102.814736 
1596.298877  	102.878868 
1597.730535  	102.919124 
1599.162194  	102.826497 
1600.593852  	102.642446 
1602.025510  	102.572216 
1603.457168  	102.611037 
1604.888826  	102.871846 
1606.320485  	103.316975 
1607.752143  	103.825237 
1609.183801  	104.453116 
1610.615459  	105.033222 
1612.047117  	105.526420 
1613.478775  	105.839432 
1614.910434  	105.900373 
1616.342092  	105.991080 
1617.773750  	106.323833 
1619.205408  	106.477296 
1620.637066  	106.451075 
1622.068725  	106.375824 
1623.500383  	106.431134 
1624.932041  	106.548320 
1626.363699  	106.505857 
1627.795357  	106.419789 
1629.227016  	106.363456 
1630.658674  	106.285557 
1632.090332  	106.135176 
1633.521990  	105.847686 
1634.953648  	105.478934 
1636.385306  	105.376504 
1637.816965  	105.447952 
1639.248623  	105.452608 
1640.680281  	105.616734 
1642.111939  	105.773785 
1643.543597  	105.733461 
1644.975256  	105.633726 
1646.406914  	105.609700 
1647.838572  	105.768664 
1649.270230  	105.817705 
1650.701888  	105.693232 
1652.133547  	105.471779 
1653.565205  	105.473396 
1654.996863  	105.855579 
1656.428521  	105.916021 
1657.860179  	105.903638 
1659.291837  	105.917268 
1660.723496  	105.895007 
1662.155154  	105.867928 
1663.586812  	105.971148 
1665.018470  	106.034362 
1666.450128  	106.018083 
1667.881787  	105.948262 
1669.313445  	105.871138 
1670.745103  	106.075589 
1672.176761  	106.188790 
1673.608419  	106.033667 
1675.040077  	106.026548 
1676.471736  	106.210956 
1677.903394  	106.137688 
1679.335052  	106.039191 
1680.766710  	105.982733 
1682.198368  	105.801678 
1683.630027  	105.498405 
1685.061685  	105.754276 
1686.493343  	105.975039 
1687.925001  	105.810123 
1689.356659  	105.688092 
1690.788318  	105.714292 
1692.219976  	105.605368 
1693.651634  	105.378950 
1695.083292  	105.127803 
1696.514950  	105.100314 
1697.946608  	105.060833 
1699.378267  	104.691195 
1700.809925  	104.655798 
1702.241583  	104.799085 
1703.673241  	104.404485 
1705.104899  	104.153817 
1706.536558  	104.132651 
1707.968216  	103.878830 
1709.399874  	103.733482 
1710.831532  	103.575000 
1712.263190  	103.309868 
1713.694849  	103.124005 
1715.126507  	102.741947 
1716.558165  	102.396158 
1717.989823  	102.319761 
1719.421481  	102.043521 
1720.853139  	101.853607 
1722.284798  	101.587037 
1723.716456  	101.183428 
1725.148114  	100.941160 
1726.579772  	100.562994 
1728.011430  	100.160120 
1729.443089  	99.883261 
1730.874747  	99.409324 
1732.306405  	99.093309 
1733.738063  	98.894744 
1735.169721  	98.501628 
1736.601379  	98.251772 
1738.033038  	97.747267 
1739.464696  	97.176782 
1740.896354  	96.829541 
1742.328012  	96.116273 
1743.759670  	95.465966 
1745.191329  	94.849223 
1746.622987  	93.804062 
1748.054645  	92.820450 
1749.486303  	91.610310 
1750.917961  	90.017833 
1752.349620  	88.415243 
1753.781278  	86.421308 
1755.212936  	84.433576 
1756.644594  	82.093484 
1758.076252  	78.803455 
1759.507910  	76.106239 
1760.939569  	73.590162 
1762.371227  	70.277941 
1763.802885  	67.981935 
1765.234543  	66.731691 
1766.666201  	65.679563 
1768.097860  	65.384629 
1769.529518  	65.491098 
1770.961176  	65.844672 
1772.392834  	67.158325 
1773.824492  	68.366168 
1775.256150  	69.665586 
1776.687809  	71.551422 
1778.119467  	73.087067 
1779.551125  	74.757413 
1780.982783  	76.930874 
1782.414441  	78.714613 
1783.846100  	80.705093 
1785.277758  	82.928632 
1786.709416  	84.817972 
1788.141074  	87.026114 
1789.572732  	89.066311 
1791.004391  	90.803019 
1792.436049  	93.328774 
1793.867707  	95.405491 
1795.299365  	96.970805 
1796.731023  	98.774283 
1798.162681  	99.992557 
1799.594340  	101.188410 
1801.025998  	102.473883 
1802.457656  	103.183072 
1803.889314  	104.094531 
1805.320972  	104.718540 
1806.752631  	105.019310 
1808.184289  	105.632516 
1809.615947  	105.902231 
1811.047605  	106.148578 
1812.479263  	106.535820 
1813.910922  	106.543659 
1815.342580  	106.844337 
1816.774238  	107.145737 
1818.205896  	107.168727 
1819.637554  	107.417468 
1821.069212  	107.385620 
1822.500871  	107.389012 
1823.932529  	107.596776 
1825.364187  	107.441568 
1826.795845  	107.615476 
1828.227503  	107.759356 
1829.659162  	107.521386 
1831.090820  	107.708978 
1832.522478  	107.750502 
1833.954136  	107.731990 
1835.385794  	107.928660 
1836.817452  	107.810419 
1838.249111  	107.893414 
1839.680769  	108.042113 
1841.112427  	107.838923 
1842.544085  	107.929591 
1843.975743  	107.977742 
1845.407402  	107.887069 
1846.839060  	108.049141 
1848.270718  	107.901566 
1849.702376  	107.913049 
1851.134034  	108.023972 
1852.565693  	107.827514 
1853.997351  	107.998170 
1855.429009  	108.099555 
1856.860667  	107.916849 
1858.292325  	108.064562 
1859.723983  	108.013248 
1861.155642  	107.937354 
1862.587300  	108.128745 
1864.018958  	108.076532 
1865.450616  	108.082792 
1866.882274  	107.967810 
1868.313933  	107.701182 
1869.745591  	107.984127 
1871.177249  	107.972360 
1872.608907  	107.814154 
1874.040565  	107.974215 
1875.472224  	107.856013 
1876.903882  	107.748808 
1878.335540  	107.773770 
1879.767198  	107.673854 
1881.198856  	107.795841 
1882.630514  	107.786263 
1884.062173  	107.679385 
1885.493831  	107.731006 
1886.925489  	107.499966 
1888.357147  	107.411633 
1889.788805  	107.459405 
1891.220464  	107.234197 
1892.652122  	107.283556 
1894.083780  	107.239918 
1895.515438  	107.027950 
1896.947096  	107.138111 
1898.378754  	107.085240 
1899.810413  	107.088487 
1901.242071  	107.269869 
1902.673729  	107.187238 
1904.105387  	107.275792 
1905.537045  	107.433889 
1906.968704  	107.482836 
1908.400362  	107.633516 
1909.832020  	107.563876 
1911.263678  	107.746757 
1912.695336  	108.067932 
1914.126995  	107.946894 
1915.558653  	108.185099 
1916.990311  	108.396469 
1918.421969  	108.005290 
1919.853627  	108.063536 
1921.285285  	108.034630 
1922.716944  	107.814380 
1924.148602  	108.027409 
1925.580260  	107.935800 
1927.011918  	107.920037 
1928.443576  	108.285188 
1929.875235  	108.362382 
1931.306893  	108.339361 
1932.738551  	108.119784 
1934.170209  	108.118039 
1935.601867  	108.628990 
1937.033525  	108.510569 
1938.465184  	108.174631 
1939.896842  	108.120978 
1941.328500  	107.922262 
1942.760158  	108.250692 
1944.191816  	108.450942 
1945.623475  	108.115320 
1947.055133  	108.154191 
1948.486791  	107.904612 
1949.918449  	107.676149 
1951.350107  	107.977455 
1952.781766  	107.949375 
1954.213424  	107.977253 
1955.645082  	108.000824 
1957.076740  	107.864273 
1958.508398  	108.157455 
1959.940056  	107.870575 
1961.371715  	107.551542 
1962.803373  	107.948091 
1964.235031  	107.577918 
1965.666689  	107.245263 
1967.098347  	107.595493 
1968.530006  	107.934561 
1969.961664  	108.417341 
1971.393322  	108.021430 
1972.824980  	107.541183 
1974.256638  	108.062849 
1975.688297  	107.664125 
1977.119955  	107.262798 
1978.551613  	107.818096 
1979.983271  	107.835106 
1981.414929  	107.853056 
1982.846587  	107.787105 
1984.278246  	107.536363 
1985.709904  	107.595247 
1987.141562  	107.477889 
1988.573220  	107.873472 
1990.004878  	108.290016 
1991.436537  	107.626616 
1992.868195  	107.601369 
1994.299853  	108.024463 
1995.731511  	107.840093 
1997.163169  	107.886742 
1998.594827  	107.765185 
2000.026486  	107.652636 
2001.458144  	107.853551 
2002.889802  	107.551511 
2004.321460  	107.520241 
2005.753118  	107.684778 
2007.184777  	107.448222 
2008.616435  	107.573561 
2010.048093  	107.375268 
2011.479751  	107.178644 
2012.911409  	107.574206 
2014.343068  	107.490558 
2015.774726  	107.407174 
2017.206384  	107.326595 
2018.638042  	107.048862 
2020.069700  	107.423495 
2021.501358  	107.308887 
2022.933017  	107.056501 
2024.364675  	107.540711 
2025.796333  	107.339467 
2027.227991  	107.319455 
2028.659649  	107.688160 
2030.091308  	107.263423 
2031.522966  	107.376538 
2032.954624  	107.717734 
2034.386282  	107.662389 
2035.817940  	107.753918 
2037.249599  	107.112851 
2038.681257  	106.754974 
2040.112915  	107.119945 
2041.544573  	107.125117 
2042.976231  	107.440703 
2044.407889  	107.584153 
2045.839548  	107.200618 
2047.271206  	107.356335 
2048.702864  	107.444224 
2050.134522  	107.532220 
2051.566180  	107.775180 
2052.997839  	107.499420 
2054.429497  	107.512977 
2055.861155  	107.738432 
2057.292813  	107.746260 
2058.724471  	108.179329 
2060.156129  	108.188112 
2061.587788  	107.700181 
2063.019446  	107.883359 
2064.451104  	108.249710 
2065.882762  	108.402656 
2067.314420  	108.334977 
2068.746079  	108.116306 
2070.177737  	108.231317 
2071.609395  	108.102032 
2073.041053  	107.908937 
2074.472711  	108.174315 
2075.904370  	107.957650 
2077.336028  	107.707414 
2078.767686  	108.068355 
2080.199344  	108.162062 
2081.631002  	108.115698 
2083.062660  	108.224086 
2084.494319  	108.263099 
2085.925977  	108.325603 
2087.357635  	108.261371 
2088.789293  	108.317325 
2090.220951  	108.453817 
2091.652610  	108.230073 
2093.084268  	108.247575 
2094.515926  	108.490451 
2095.947584  	108.555565 
2097.379242  	108.781814 
2098.810901  	108.734602 
2100.242559  	108.494040 
2101.674217  	108.606174 
2103.105875  	108.565713 
2104.537533  	108.547851 
2105.969191  	108.742417 
2107.400850  	108.714775 
2108.832508  	108.723967 
2110.264166  	108.665321 
2111.695824  	108.441747 
2113.127482  	108.417398 
2114.559141  	108.435391 
2115.990799  	108.600648 
2117.422457  	108.787514 
2118.854115  	108.648002 
2120.285773  	108.684255 
2121.717431  	108.765064 
2123.149090  	108.617021 
2124.580748  	108.676844 
2126.012406  	108.607228 
2127.444064  	108.351304 
2128.875722  	108.380335 
2130.307381  	108.494778 
2131.739039  	108.598537 
2133.170697  	108.545614 
2134.602355  	108.356614 
2136.034013  	108.405891 
2137.465672  	108.266029 
2138.897330  	108.085436 
2140.328988  	108.203663 
2141.760646  	108.177384 
2143.192304  	108.138327 
2144.623962  	107.926156 
2146.055621  	107.772458 
2147.487279  	108.323827 
2148.918937  	108.402184 
2150.350595  	107.997183 
2151.782253  	107.957623 
2153.213912  	107.542413 
2154.645570  	107.564157 
2156.077228  	108.095395 
2157.508886  	107.684198 
2158.940544  	107.380401 
2160.372202  	107.167269 
2161.803861  	106.932734 
2163.235519  	107.660888 
2164.667177  	107.979479 
2166.098835  	107.711310 
2167.530493  	107.901789 
2168.962152  	108.125888 
2170.393810  	108.139846 
2171.825468  	107.821449 
2173.257126  	107.753435 
2174.688784  	108.015616 
2176.120443  	107.562749 
2177.552101  	107.558782 
2178.983759  	108.241800 
2180.415417  	108.144385 
2181.847075  	108.100550 
2183.278733  	107.912041 
2184.710392  	107.240855 
2186.142050  	107.672063 
2187.573708  	108.060211 
2189.005366  	107.498398 
2190.437024  	107.559898 
2191.868683  	107.939782 
2193.300341  	107.863917 
2194.731999  	107.658038 
2196.163657  	107.636505 
2197.595315  	107.919476 
2199.026974  	107.875325 
2200.458632  	107.637986 
2201.890290  	107.792705 
2203.321948  	107.860922 
2204.753606  	107.952082 
2206.185264  	108.109440 
2207.616923  	107.948980 
2209.048581  	107.996395 
2210.480239  	108.159118 
2211.911897  	108.147900 
2213.343555  	108.158348 
2214.775214  	107.977626 
2216.206872  	107.950617 
2217.638530  	108.059677 
2219.070188  	107.852708 
2220.501846  	107.765915 
2221.933504  	107.692824 
2223.365163  	107.653088 
2224.796821  	107.914184 
2226.228479  	107.755001 
2227.660137  	107.630513 
2229.091795  	108.116050 
2230.523454  	108.243406 
2231.955112  	108.032325 
2233.386770  	107.903051 
2234.818428  	107.774758 
2236.250086  	107.849551 
2237.681745  	107.848041 
2239.113403  	107.811958 
2240.545061  	107.969281 
2241.976719  	107.903775 
2243.408377  	107.825354 
2244.840035  	107.940798 
2246.271694  	108.122151 
2247.703352  	108.417818 
2249.135010  	108.318184 
2250.566668  	108.039528 
2251.998326  	108.157793 
2253.429985  	108.125484 
2254.861643  	108.047230 
2256.293301  	108.203119 
2257.724959  	108.176327 
2259.156617  	108.230471 
2260.588276  	108.358946 
2262.019934  	108.277036 
2263.451592  	108.277468 
2264.883250  	108.337032 
2266.314908  	108.508401 
2267.746566  	108.745816 
2269.178225  	108.664162 
2270.609883  	108.545860 
2272.041541  	108.485560 
2273.473199  	108.457390 
2274.904857  	108.777718 
2276.336516  	108.952673 
2277.768174  	108.767207 
2279.199832  	108.795675 
2280.631490  	108.922440 
2282.063148  	108.906133 
2283.494806  	108.879635 
2284.926465  	108.911184 
2286.358123  	108.931229 
2287.789781  	108.779883 
2289.221439  	108.699359 
2290.653097  	108.790279 
2292.084756  	108.712057 
2293.516414  	108.623078 
2294.948072  	108.609600 
2296.379730  	108.489681 
2297.811388  	108.494161 
2299.243047  	108.534145 
2300.674705  	108.391992 
2302.106363  	108.248283 
2303.538021  	108.098282 
2304.969679  	107.973627 
2306.401337  	107.862840 
2307.832996  	107.617396 
2309.264654  	107.442354 
2310.696312  	107.316272 
2312.127970  	107.134965 
2313.559628  	107.137338 
2314.991287  	107.126082 
2316.422945  	106.879436 
2317.854603  	106.579472 
2319.286261  	106.255033 
2320.717919  	105.969965 
2322.149577  	105.787926 
2323.581236  	105.704811 
2325.012894  	105.710456 
2326.444552  	105.561943 
2327.876210  	105.234094 
2329.307868  	104.927551 
2330.739527  	104.742728 
2332.171185  	104.833331 
2333.602843  	105.019481 
2335.034501  	105.006094 
2336.466159  	104.905466 
2337.897818  	104.758824 
2339.329476  	104.661249 
2340.761134  	104.669283 
2342.192792  	104.562613 
2343.624450  	104.491562 
2345.056108  	104.621771 
2346.487767  	105.147790 
2347.919425  	106.069929 
2349.351083  	106.412934 
2350.782741  	105.739578 
2352.214399  	104.825289 
2353.646058  	104.325311 
2355.077716  	103.921202 
2356.509374  	103.568589 
2357.941032  	103.292794 
2359.372690  	103.095308 
2360.804349  	103.096535 
2362.236007  	103.106331 
2363.667665  	103.229220 
2365.099323  	103.551439 
2366.530981  	103.851337 
2367.962639  	104.175186 
2369.394298  	104.506948 
2370.825956  	104.866838 
2372.257614  	105.304867 
2373.689272  	105.672651 
2375.120930  	106.044959 
2376.552589  	106.447857 
2377.984247  	106.843132 
2379.415905  	107.339359 
2380.847563  	107.802384 
2382.279221  	108.153669 
2383.710879  	108.471405 
2385.142538  	108.698453 
2386.574196  	108.872930 
2388.005854  	108.921306 
2389.437512  	108.778532 
2390.869170  	108.762101 
2392.300829  	108.896566 
2393.732487  	108.931584 
2395.164145  	108.954632 
2396.595803  	108.999639 
2398.027461  	108.944827 
2399.459120  	108.875939 
2400.890778  	108.907551 
2402.322436  	108.930382 
2403.754094  	108.849143 
2405.185752  	108.837152 
2406.617410  	108.910821 
2408.049069  	108.858882 
2409.480727  	108.772514 
2410.912385  	108.769239 
2412.344043  	108.788029 
2413.775701  	108.827087 
2415.207360  	108.815334 
2416.639018  	108.806258 
2418.070676  	108.923668 
2419.502334  	108.992810 
2420.933992  	108.937975 
2422.365651  	108.872422 
2423.797309  	108.853604 
2425.228967  	108.931769 
2426.660625  	109.017652 
2428.092283  	109.074629 
2429.523941  	109.114286 
2430.955600  	108.996091 
2432.387258  	108.914902 
2433.818916  	109.058416 
2435.250574  	109.126983 
2436.682232  	109.053993 
2438.113891  	109.014411 
2439.545549  	109.009400 
2440.977207  	109.030107 
2442.408865  	109.030885 
2443.840523  	109.019846 
2445.272181  	109.048247 
2446.703840  	109.049321 
2448.135498  	109.033779 
2449.567156  	109.032214 
2450.998814  	109.056661 
2452.430472  	109.124662 
2453.862131  	109.124793 
2455.293789  	109.104232 
2456.725447  	109.155614 
2458.157105  	109.132312 
2459.588763  	109.068324 
2461.020422  	109.092643 
2462.452080  	109.157012 
2463.883738  	109.222862 
2465.315396  	109.195342 
2466.747054  	109.078987 
2468.178712  	109.028349 
2469.610371  	109.019257 
2471.042029  	109.032868 
2472.473687  	109.120028 
2473.905345  	109.176774 
2475.337003  	109.105571 
2476.768662  	109.000635 
2478.200320  	109.021843 
2479.631978  	109.091391 
2481.063636  	109.091534 
2482.495294  	109.121946 
2483.926953  	109.102516 
2485.358611  	109.023049 
2486.790269  	109.133173 
2488.221927  	109.250712 
2489.653585  	109.204287 
2491.085243  	109.240551 
2492.516902  	109.308284 
2493.948560  	109.270675 
2495.380218  	109.212076 
2496.811876  	109.178427 
2498.243534  	109.250436 
2499.675193  	109.350649 
2501.106851  	109.351444 
2502.538509  	109.374182 
2503.970167  	109.416132 
2505.401825  	109.381059 
2506.833483  	109.327943 
2508.265142  	109.330480 
2509.696800  	109.393875 
2511.128458  	109.410890 
2512.560116  	109.412050 
2513.991774  	109.512227 
2515.423433  	109.543683 
2516.855091  	109.452908 
2518.286749  	109.408420 
2519.718407  	109.449242 
2521.150065  	109.556309 
2522.581724  	109.612091 
2524.013382  	109.572366 
2525.445040  	109.544211 
2526.876698  	109.518486 
2528.308356  	109.558704 
2529.740014  	109.621943 
2531.171673  	109.567567 
2532.603331  	109.567533 
2534.034989  	109.559797 
2535.466647  	109.453137 
2536.898305  	109.518285 
2538.329964  	109.574462 
2539.761622  	109.498736 
2541.193280  	109.592977 
2542.624938  	109.679033 
2544.056596  	109.612471 
2545.488254  	109.590152 
2546.919913  	109.629073 
2548.351571  	109.724490 
2549.783229  	109.745565 
2551.214887  	109.687129 
2552.646545  	109.746157 
2554.078204  	109.744686 
2555.509862  	109.689302 
2556.941520  	109.730352 
2558.373178  	109.674135 
2559.804836  	109.671146 
2561.236495  	109.780215 
2562.668153  	109.721401 
2564.099811  	109.676835 
2565.531469  	109.686509 
2566.963127  	109.602043 
2568.394785  	109.619335 
2569.826444  	109.699390 
2571.258102  	109.761258 
2572.689760  	109.852593 
2574.121418  	109.806212 
2575.553076  	109.699871 
2576.984735  	109.701738 
2578.416393  	109.739235 
2579.848051  	109.777946 
2581.279709  	109.751348 
2582.711367  	109.697410 
2584.143026  	109.733236 
2585.574684  	109.758459 
2587.006342  	109.735212 
2588.438000  	109.683411 
2589.869658  	109.612409 
2591.301316  	109.618350 
2592.732975  	109.645136 
2594.164633  	109.687045 
2595.596291  	109.809062 
2597.027949  	109.864061 
2598.459607  	109.860449 
2599.891266  	109.894646 
2601.322924  	109.884231 
2602.754582  	109.842475 
2604.186240  	109.784323 
2605.617898  	109.712402 
2607.049556  	109.722614 
2608.481215  	109.783285 
2609.912873  	109.831829 
2611.344531  	109.864727 
2612.776189  	109.866685 
2614.207847  	109.873115 
2615.639506  	109.892201 
2617.071164  	109.911544 
2618.502822  	109.892140 
2619.934480  	109.796749 
2621.366138  	109.766840 
2622.797797  	109.853214 
2624.229455  	109.921423 
2625.661113  	109.948904 
2627.092771  	109.971505 
2628.524429  	110.026949 
2629.956087  	110.057566 
2631.387746  	109.961146 
2632.819404  	109.921311 
2634.251062  	110.009473 
2635.682720  	110.018767 
2637.114378  	109.985972 
2638.546037  	110.002506 
2639.977695  	110.038050 
2641.409353  	110.086482 
2642.841011  	110.056321 
2644.272669  	109.978580 
2645.704328  	109.964126 
2647.135986  	109.961981 
2648.567644  	109.981899 
2649.999302  	110.009120 
2651.430960  	109.991313 
2652.862618  	110.018439 
2654.294277  	110.054813 
2655.725935  	110.035905 
2657.157593  	110.023720 
2658.589251  	109.997565 
2660.020909  	109.982583 
2661.452568  	109.987896 
2662.884226  	109.929742 
2664.315884  	109.906245 
2665.747542  	109.970440 
2667.179200  	109.984922 
2668.610858  	109.940715 
2670.042517  	109.926552 
2671.474175  	109.958659 
2672.905833  	109.966038 
2674.337491  	109.931444 
2675.769149  	109.950272 
2677.200808  	109.990655 
2678.632466  	109.992423 
2680.064124  	109.991494 
2681.495782  	109.944969 
2682.927440  	109.907122 
2684.359099  	109.955220 
2685.790757  	109.971979 
2687.222415  	109.965226 
2688.654073  	109.996730 
2690.085731  	109.987635 
2691.517389  	109.961425 
2692.949048  	109.958714 
2694.380706  	109.948794 
2695.812364  	109.950118 
2697.244022  	109.963038 
2698.675680  	109.968063 
2700.107339  	109.955803 
2701.538997  	109.950338 
2702.970655  	109.969748 
2704.402313  	109.940485 
2705.833971  	109.886834 
2707.265630  	109.877998 
2708.697288  	109.857547 
2710.128946  	109.840583 
2711.560604  	109.823033 
2712.992262  	109.764477 
2714.423920  	109.774442 
2715.855579  	109.832867 
2717.287237  	109.844445 
2718.718895  	109.864618 
2720.150553  	109.871174 
2721.582211  	109.856721 
2723.013870  	109.892245 
2724.445528  	109.935547 
2725.877186  	109.936551 
2727.308844  	109.886808 
2728.740502  	109.843822 
2730.172160  	109.857379 
2731.603819  	109.836967 
2733.035477  	109.818782 
2734.467135  	109.861012 
2735.898793  	109.858696 
2737.330451  	109.879890 
2738.762110  	109.951181 
2740.193768  	109.913912 
2741.625426  	109.843938 
2743.057084  	109.869020 
2744.488742  	109.936132 
2745.920401  	109.965632 
2747.352059  	109.940573 
2748.783717  	109.945388 
2750.215375  	109.962730 
2751.647033  	109.940096 
2753.078691  	109.956382 
2754.510350  	109.937653 
2755.942008  	109.872241 
2757.373666  	109.896388 
2758.805324  	109.880840 
2760.236982  	109.809426 
2761.668641  	109.836139 
2763.100299  	109.853959 
2764.531957  	109.844805 
2765.963615  	109.871189 
2767.395273  	109.834154 
2768.826931  	109.755782 
2770.258590  	109.693947 
2771.690248  	109.662339 
2773.121906  	109.689711 
2774.553564  	109.691863 
2775.985222  	109.661982 
2777.416881  	109.664152 
2778.848539  	109.661846 
2780.280197  	109.667448 
2781.711855  	109.669801 
2783.143513  	109.648589 
2784.575172  	109.689777 
2786.006830  	109.764321 
2787.438488  	109.778162 
2788.870146  	109.764190 
2790.301804  	109.787552 
2791.733462  	109.815127 
2793.165121  	109.755911 
2794.596779  	109.688020 
2796.028437  	109.701230 
2797.460095  	109.702666 
2798.891753  	109.720895 
2800.323412  	109.772511 
2801.755070  	109.748653 
2803.186728  	109.732946 
2804.618386  	109.740630 
2806.050044  	109.693782 
2807.481703  	109.683400 
2808.913361  	109.678124 
2810.345019  	109.651094 
2811.776677  	109.682227 
2813.208335  	109.675703 
2814.639993  	109.653050 
2816.071652  	109.701265 
2817.503310  	109.701370 
2818.934968  	109.675555 
2820.366626  	109.687647 
2821.798284  	109.662483 
2823.229943  	109.649657 
2824.661601  	109.700839 
2826.093259  	109.746325 
2827.524917  	109.735604 
2828.956575  	109.677374 
2830.388233  	109.629282 
2831.819892  	109.623136 
2833.251550  	109.670540 
2834.683208  	109.709727 
2836.114866  	109.627685 
2837.546524  	109.536032 
2838.978183  	109.532974 
2840.409841  	109.482786 
2841.841499  	109.371155 
2843.273157  	109.238292 
2844.704815  	109.042493 
2846.136474  	108.781158 
2847.568132  	108.436363 
2848.999790  	108.144828 
2850.431448  	108.083841 
2851.863106  	108.159172 
2853.294764  	108.296158 
2854.726423  	108.458814 
2856.158081  	108.509462 
2857.589739  	108.486762 
2859.021397  	108.460895 
2860.453055  	108.379144 
2861.884714  	108.229720 
2863.316372  	108.004810 
2864.748030  	107.750833 
2866.179688  	107.499889 
2867.611346  	107.197954 
2869.043005  	106.919795 
2870.474663  	106.725479 
2871.906321  	106.570360 
2873.337979  	106.520532 
2874.769637  	106.594694 
2876.201295  	106.700595 
2877.632954  	106.825910 
2879.064612  	106.980758 
2880.496270  	107.160669 
2881.927928  	107.340069 
2883.359586  	107.451538 
2884.791245  	107.484301 
2886.222903  	107.480901 
2887.654561  	107.483061 
2889.086219  	107.476579 
2890.517877  	107.436122 
2891.949535  	107.439192 
2893.381194  	107.492897 
2894.812852  	107.512670 
2896.244510  	107.529698 
2897.676168  	107.570435 
2899.107826  	107.602229 
2900.539485  	107.612286 
2901.971143  	107.566022 
2903.402801  	107.484423 
2904.834459  	107.381370 
2906.266117  	107.221723 
2907.697776  	107.072563 
2909.129434  	106.941289 
2910.561092  	106.739743 
2911.992750  	106.492423 
2913.424408  	106.214691 
2914.856066  	105.897316 
2916.287725  	105.639542 
2917.719383  	105.519749 
2919.151041  	105.527035 
2920.582699  	105.612812 
2922.014357  	105.709238 
2923.446016  	105.792836 
2924.877674  	105.844839 
2926.309332  	105.811125 
2927.740990  	105.715748 
2929.172648  	105.640403 
2930.604306  	105.568658 
2932.035965  	105.460705 
2933.467623  	105.404133 
2934.899281  	105.440356 
2936.330939  	105.478946 
2937.762597  	105.522466 
2939.194256  	105.620559 
2940.625914  	105.729588 
2942.057572  	105.837539 
2943.489230  	105.938263 
2944.920888  	105.975504 
2946.352547  	105.975743 
2947.784205  	105.985572 
2949.215863  	105.953395 
2950.647521  	105.824539 
2952.079179  	105.610743 
2953.510837  	105.340233 
2954.942496  	105.014737 
2956.374154  	104.596630 
2957.805812  	104.048640 
2959.237470  	103.453774 
2960.669128  	102.903725 
2962.100787  	102.319292 
2963.532445  	101.708151 
2964.964103  	101.216696 
2966.395761  	100.889806 
2967.827419  	100.751069 
2969.259078  	100.769015 
2970.690736  	100.880550 
2972.122394  	101.147326 
2973.554052  	101.539982 
2974.985710  	101.972030 
2976.417368  	102.464027 
2977.849027  	102.950981 
2979.280685  	103.429798 
2980.712343  	104.002010 
2982.144001  	104.548950 
2983.575659  	104.996167 
2985.007318  	105.450252 
2986.438976  	105.899556 
2987.870634  	106.332995 
2989.302292  	106.740760 
2990.733950  	107.082405 
2992.165608  	107.430605 
2993.597267  	107.734291 
2995.028925  	107.952358 
2996.460583  	108.228765 
2997.892241  	108.499730 
2999.323899  	108.677630 
3000.755558  	108.840573 
3002.187216  	108.979019 
3003.618874  	109.132294 
3005.050532  	109.298064 
3006.482190  	109.372797 
3007.913849  	109.445091 
3009.345507  	109.558944 
3010.777165  	109.642689 
3012.208823  	109.728048 
3013.640481  	109.815380 
3015.072139  	109.885260 
3016.503798  	109.920254 
3017.935456  	109.919165 
3019.367114  	109.966871 
3020.798772  	110.008806 
3022.230430  	109.977477 
3023.662089  	109.950487 
3025.093747  	109.921731 
3026.525405  	109.903137 
3027.957063  	109.869343 
3029.388721  	109.713205 
3030.820380  	109.540864 
3032.252038  	109.394204 
3033.683696  	109.191020 
3035.115354  	109.032743 
3036.547012  	108.927589 
3037.978670  	108.800757 
3039.410329  	108.667496 
3040.841987  	108.523378 
3042.273645  	108.468491 
3043.705303  	108.536664 
3045.136961  	108.603878 
3046.568620  	108.696620 
3048.000278  	108.811792 
3049.431936  	108.864696 
3050.863594  	108.907113 
3052.295252  	108.912108 
3053.726910  	108.812791 
3055.158569  	108.704029 
3056.590227  	108.705456 
3058.021885  	108.790990 
3059.453543  	108.787818 
3060.885201  	108.696876 
3062.316860  	108.679539 
3063.748518  	108.719694 
3065.180176  	108.808827 
3066.611834  	108.961951 
3068.043492  	109.059523 
3069.475151  	109.119666 
3070.906809  	109.193455 
3072.338467  	109.228726 
3073.770125  	109.273874 
3075.201783  	109.342953 
3076.633441  	109.396410 
3078.065100  	109.459793 
3079.496758  	109.522383 
3080.928416  	109.578647 
3082.360074  	109.622238 
3083.791732  	109.632328 
3085.223391  	109.640642 
3086.655049  	109.675124 
3088.086707  	109.777113 
3089.518365  	109.888846 
3090.950023  	109.912708 
3092.381682  	109.990557 
3093.813340  	110.137502 
3095.244998  	110.141545 
3096.676656  	110.063576 
3098.108314  	110.052646 
3099.539972  	110.087558 
3100.971631  	110.117510 
3102.403289  	110.089262 
3103.834947  	110.071074 
3105.266605  	110.136460 
3106.698263  	110.206634 
3108.129922  	110.223185 
3109.561580  	110.163081 
3110.993238  	110.100391 
3112.424896  	110.136875 
3113.856554  	110.166770 
3115.288212  	110.140620 
3116.719871  	110.154046 
3118.151529  	110.234858 
3119.583187  	110.337678 
3121.014845  	110.344096 
3122.446503  	110.309800 
3123.878162  	110.372564 
3125.309820  	110.405037 
3126.741478  	110.415463 
3128.173136  	110.457272 
3129.604794  	110.385568 
3131.036453  	110.402477 
3132.468111  	110.631013 
3133.899769  	110.741503 
3135.331427  	110.713714 
3136.763085  	110.692577 
3138.194743  	110.644748 
3139.626402  	110.648703 
3141.058060  	110.707060 
3142.489718  	110.721050 
3143.921376  	110.706742 
3145.353034  	110.719375 
3146.784693  	110.761952 
3148.216351  	110.738907 
3149.648009  	110.684287 
3151.079667  	110.694604 
3152.511325  	110.662735 
3153.942983  	110.646815 
3155.374642  	110.736035 
3156.806300  	110.770376 
3158.237958  	110.785208 
3159.669616  	110.820482 
3161.101274  	110.809796 
3162.532933  	110.878482 
3163.964591  	110.933672 
3165.396249  	110.849753 
3166.827907  	110.803172 
3168.259565  	110.789971 
3169.691224  	110.781997 
3171.122882  	110.832520 
3172.554540  	110.831119 
3173.986198  	110.830282 
3175.417856  	110.883197 
3176.849514  	110.879749 
3178.281173  	110.880655 
3179.712831  	110.886017 
3181.144489  	110.845672 
3182.576147  	110.852300 
3184.007805  	110.863527 
3185.439464  	110.834456 
3186.871122  	110.796931 
3188.302780  	110.722054 
3189.734438  	110.708298 
3191.166096  	110.782678 
3192.597755  	110.797523 
3194.029413  	110.798262 
3195.461071  	110.861930 
3196.892729  	110.902770 
3198.324387  	110.903755 
3199.756045  	110.884642 
3201.187704  	110.822448 
3202.619362  	110.791378 
3204.051020  	110.850851 
3205.482678  	110.870507 
3206.914336  	110.809969 
3208.345995  	110.804654 
3209.777653  	110.824177 
3211.209311  	110.813222 
3212.640969  	110.866550 
3214.072627  	110.951095 
3215.504285  	110.982650 
3216.935944  	110.952474 
3218.367602  	110.855649 
3219.799260  	110.800662 
3221.230918  	110.856634 
3222.662576  	110.937707 
3224.094235  	111.001413 
3225.525893  	111.013835 
3226.957551  	110.981801 
3228.389209  	110.973408 
3229.820867  	110.973322 
3231.252526  	110.976868 
3232.684184  	110.972566 
3234.115842  	110.935249 
3235.547500  	110.927334 
3236.979158  	110.915844 
3238.410816  	110.874825 
3239.842475  	110.919416 
3241.274133  	111.017676 
3242.705791  	111.039833 
3244.137449  	110.979579 
3245.569107  	110.950346 
3247.000766  	111.030114 
3248.432424  	111.061936 
3249.864082  	110.991615 
3251.295740  	110.983512 
3252.727398  	110.995228 
3254.159057  	110.975581 
3255.590715  	110.996754 
3257.022373  	110.978279 
3258.454031  	110.932219 
3259.885689  	110.961038 
3261.317347  	110.987787 
3262.749006  	110.929681 
3264.180664  	110.825225 
3265.612322  	110.815302 
3267.043980  	110.928290 
3268.475638  	110.974298 
3269.907297  	110.922071 
3271.338955  	110.884131 
3272.770613  	110.903478 
3274.202271  	110.990502 
3275.633929  	111.005190 
3277.065587  	110.896915 
3278.497246  	110.835583 
3279.928904  	110.822769 
3281.360562  	110.820989 
3282.792220  	110.846100 
3284.223878  	110.806697 
3285.655537  	110.734757 
3287.087195  	110.692507 
3288.518853  	110.652945 
3289.950511  	110.662542 
3291.382169  	110.671522 
3292.813828  	110.645423 
3294.245486  	110.668027 
3295.677144  	110.649466 
3297.108802  	110.566687 
3298.540460  	110.557707 
3299.972118  	110.575136 
3301.403777  	110.550416 
3302.835435  	110.542880 
3304.267093  	110.580562 
3305.698751  	110.643237 
3307.130409  	110.690564 
3308.562068  	110.733783 
3309.993726  	110.820437 
3311.425384  	110.940821 
3312.857042  	111.035355 
3314.288700  	111.030323 
3315.720359  	110.980686 
3317.152017  	110.995683 
3318.583675  	111.028445 
3320.015333  	111.048463 
3321.446991  	111.065048 
3322.878649  	111.064133 
3324.310308  	111.144675 
3325.741966  	111.247778 
3327.173624  	111.171091 
3328.605282  	111.058476 
3330.036940  	111.097843 
3331.468599  	111.156031 
3332.900257  	111.143427 
3334.331915  	111.130744 
3335.763573  	111.141985 
3337.195231  	111.143782 
3338.626889  	111.120789 
3340.058548  	111.119360 
3341.490206  	111.187152 
3342.921864  	111.252934 
3344.353522  	111.221074 
3345.785180  	111.187721 
3347.216839  	111.267171 
3348.648497  	111.312481 
3350.080155  	111.227238 
3351.511813  	111.187847 
3352.943471  	111.250251 
3354.375130  	111.288041 
3355.806788  	111.287217 
3357.238446  	111.272714 
3358.670104  	111.234170 
3360.101762  	111.243375 
3361.533420  	111.307286 
3362.965079  	111.289131 
3364.396737  	111.226875 
3365.828395  	111.253246 
3367.260053  	111.257740 
3368.691711  	111.194137 
3370.123370  	111.209263 
3371.555028  	111.286712 
3372.986686  	111.366705 
3374.418344  	111.422586 
3375.850002  	111.392124 
3377.281660  	111.382158 
3378.713319  	111.442590 
3380.144977  	111.445759 
3381.576635  	111.397728 
3383.008293  	111.345096 
3384.439951  	111.356465 
3385.871610  	111.476553 
3387.303268  	111.501657 
3388.734926  	111.391843 
3390.166584  	111.317366 
3391.598242  	111.270484 
3393.029901  	111.257926 
3394.461559  	111.265855 
3395.893217  	111.235564 
3397.324875  	111.287325 
3398.756533  	111.364032 
3400.188191  	111.311641 
3401.619850  	111.274878 
3403.051508  	111.324281 
3404.483166  	111.338356 
3405.914824  	111.276930 
3407.346482  	111.223553 
3408.778141  	111.260821 
3410.209799  	111.301948 
3411.641457  	111.304680 
3413.073115  	111.342976 
3414.504773  	111.366029 
3415.936432  	111.394979 
3417.368090  	111.440322 
3418.799748  	111.379761 
3420.231406  	111.334068 
3421.663064  	111.387076 
3423.094722  	111.359446 
3424.526381  	111.275193 
3425.958039  	111.268549 
3427.389697  	111.338165 
3428.821355  	111.374427 
3430.253013  	111.339544 
3431.684672  	111.386267 
3433.116330  	111.447707 
3434.547988  	111.391863 
3435.979646  	111.397463 
3437.411304  	111.424748 
3438.842962  	111.360359 
3440.274621  	111.346237 
3441.706279  	111.319120 
3443.137937  	111.266808 
3444.569595  	111.306727 
3446.001253  	111.306567 
3447.432912  	111.312365 
3448.864570  	111.405998 
3450.296228  	111.394383 
3451.727886  	111.310339 
3453.159544  	111.251822 
3454.591203  	111.224380 
3456.022861  	111.282523 
3457.454519  	111.319625 
3458.886177  	111.280606 
3460.317835  	111.297599 
3461.749493  	111.327080 
3463.181152  	111.296531 
3464.612810  	111.308080 
3466.044468  	111.396398 
3467.476126  	111.420657 
3468.907784  	111.325495 
3470.339443  	111.293468 
3471.771101  	111.328995 
3473.202759  	111.267369 
3474.634417  	111.208763 
3476.066075  	111.245980 
3477.497734  	111.274824 
3478.929392  	111.268141 
3480.361050  	111.247501 
3481.792708  	111.250489 
3483.224366  	111.265106 
3484.656024  	111.222943 
3486.087683  	111.218422 
3487.519341  	111.294381 
3488.950999  	111.321007 
3490.382657  	111.311781 
3491.814315  	111.362348 
3493.245974  	111.417042 
3494.677632  	111.378060 
3496.109290  	111.312404 
3497.540948  	111.313083 
3498.972606  	111.279401 
3500.404264  	111.228989 
3501.835923  	111.260160 
3503.267581  	111.214089 
3504.699239  	111.083262 
3506.130897  	111.090569 
3507.562555  	111.178502 
3508.994214  	111.216381 
3510.425872  	111.188042 
3511.857530  	111.155622 
3513.289188  	111.147787 
3514.720846  	111.115310 
3516.152505  	111.120548 
3517.584163  	111.176267 
3519.015821  	111.154616 
3520.447479  	111.059956 
3521.879137  	110.963128 
3523.310795  	110.998370 
3524.742454  	111.140376 
3526.174112  	111.014935 
3527.605770  	110.790832 
3529.037428  	110.847639 
3530.469086  	110.944803 
3531.900745  	110.993380 
3533.332403  	111.045043 
3534.764061  	110.972819 
3536.195719  	110.995914 
3537.627377  	111.111151 
3539.059035  	111.032870 
3540.490694  	110.988936 
3541.922352  	111.046625 
3543.354010  	111.005185 
3544.785668  	110.960254 
3546.217326  	110.998412 
3547.648985  	111.098637 
3549.080643  	111.192127 
3550.512301  	111.146020 
3551.943959  	111.021715 
3553.375617  	111.012458 
3554.807276  	111.152245 
3556.238934  	111.209855 
3557.670592  	111.114085 
3559.102250  	111.119840 
3560.533908  	111.191423 
3561.965566  	111.160432 
3563.397225  	111.165973 
3564.828883  	111.071819 
3566.260541  	110.887562 
3567.692199  	111.097400 
3569.123857  	111.311236 
3570.555516  	111.175073 
3571.987174  	111.101037 
3573.418832  	111.089108 
3574.850490  	111.030264 
3576.282148  	110.988963 
3577.713807  	111.082362 
3579.145465  	111.337001 
3580.577123  	111.423532 
3582.008781  	111.257806 
3583.440439  	111.169032 
3584.872097  	111.095491 
3586.303756  	110.965758 
3587.735414  	111.094780 
3589.167072  	111.407751 
3590.598730  	111.432393 
3592.030388  	111.250625 
3593.462047  	111.023999 
3594.893705  	110.939507 
3596.325363  	111.116213 
3597.757021  	111.289792 
3599.188679  	111.222813 
3600.620337  	111.204273 
3602.051996  	111.335492 
3603.483654  	111.250519 
3604.915312  	111.187547 
3606.346970  	111.293349 
3607.778628  	111.254808 
3609.210287  	111.393356 
3610.641945  	111.613224 
3612.073603  	111.365042 
3613.505261  	111.266933 
3614.936919  	111.549256 
3616.368578  	111.456090 
3617.800236  	111.182512 
3619.231894  	111.195992 
3620.663552  	111.467486 
3622.095210  	111.502657 
3623.526868  	111.312931 
3624.958527  	111.279512 
3626.390185  	111.183350 
3627.821843  	110.772653 
3629.253501  	110.891087 
3630.685159  	111.492866 
3632.116818  	111.299362 
3633.548476  	111.203713 
3634.980134  	111.372467 
3636.411792  	111.391417 
3637.843450  	111.445679 
3639.275109  	111.555410 
3640.706767  	111.466088 
3642.138425  	111.335118 
3643.570083  	111.376308 
3645.001741  	111.410525 
3646.433399  	111.249794 
3647.865058  	111.019481 
3649.296716  	110.865183 
3650.728374  	111.031139 
3652.160032  	111.565251 
3653.591690  	111.492568 
3655.023349  	111.141586 
3656.455007  	111.256466 
3657.886665  	111.408931 
3659.318323  	111.139585 
3660.749981  	111.109924 
3662.181639  	111.245312 
3663.613298  	111.272974 
3665.044956  	111.307847 
3666.476614  	111.253370 
3667.908272  	111.079581 
3669.339930  	110.945416 
3670.771589  	111.155952 
3672.203247  	111.326216 
3673.634905  	111.002128 
3675.066563  	110.895387 
3676.498221  	111.635543 
3677.929880  	111.472159 
3679.361538  	111.191125 
3680.793196  	111.291628 
3682.224854  	111.259914 
3683.656512  	111.266556 
3685.088170  	111.320477 
3686.519829  	111.067142 
3687.951487  	111.017937 
3689.383145  	111.465102 
3690.814803  	111.526710 
3692.246461  	111.479932 
3693.678120  	111.508713 
3695.109778  	111.331731 
3696.541436  	111.185215 
3697.973094  	111.214473 
3699.404752  	111.132681 
3700.836411  	111.046337 
3702.268069  	111.338616 
3703.699727  	111.592257 
3705.131385  	111.469036 
3706.563043  	111.329411 
3707.994701  	111.235867 
3709.426360  	111.126956 
3710.858018  	111.120768 
3712.289676  	111.296148 
3713.721334  	111.655794 
3715.152992  	111.758917 
3716.584651  	111.497023 
3718.016309  	111.331373 
3719.447967  	111.345144 
3720.879625  	111.185078 
3722.311283  	111.081929 
3723.742941  	111.212835 
3725.174600  	111.253219 
3726.606258  	111.284910 
3728.037916  	111.395109 
3729.469574  	111.317041 
3730.901232  	111.153101 
3732.332891  	111.145504 
3733.764549  	111.063668 
3735.196207  	110.870149 
3736.627865  	111.416990 
3738.059523  	111.843624 
3739.491182  	111.626943 
3740.922840  	111.558009 
3742.354498  	111.373532 
3743.786156  	111.037480 
3745.217814  	111.744442 
3746.649472  	111.848439 
3748.081131  	111.196967 
3749.512789  	111.153068 
3750.944447  	111.449845 
3752.376105  	111.483349 
3753.807763  	111.779309 
3755.239422  	111.689586 
3756.671080  	111.567754 
3758.102738  	111.735919 
3759.534396  	111.680575 
3760.966054  	111.728044 
3762.397712  	111.880984 
3763.829371  	111.672616 
3765.261029  	111.568882 
3766.692687  	111.688156 
3768.124345  	111.579636 
3769.556003  	111.554326 
3770.987662  	111.787561 
3772.419320  	111.884280 
3773.850978  	111.808556 
3775.282636  	111.750535 
3776.714294  	111.790953 
3778.145953  	111.721771 
3779.577611  	111.641257 
3781.009269  	111.787101 
3782.440927  	111.714500 
3783.872585  	111.525047 
3785.304243  	111.604193 
3786.735902  	111.719220 
3788.167560  	111.710216 
3789.599218  	111.656747 
3791.030876  	111.593958 
3792.462534  	111.697635 
3793.894193  	111.779015 
3795.325851  	111.658158 
3796.757509  	111.597619 
3798.189167  	111.536864 
3799.620825  	111.320351 
3801.052484  	111.319734 
3802.484142  	111.839037 
3803.915800  	111.855414 
3805.347458  	111.484387 
3806.779116  	111.466028 
3808.210774  	111.893157 
3809.642433  	111.801048 
3811.074091  	111.623783 
3812.505749  	111.671557 
3813.937407  	111.539109 
3815.369065  	111.416943 
3816.800724  	111.817604 
3818.232382  	111.776688 
3819.664040  	111.341121 
3821.095698  	111.440538 
3822.527356  	112.059974 
3823.959014  	111.859284 
3825.390673  	111.596204 
3826.822331  	111.711371 
3828.253989  	111.765712 
3829.685647  	111.546436 
3831.117305  	111.451582 
3832.548964  	111.576463 
3833.980622  	111.649780 
3835.412280  	111.566992 
3836.843938  	111.444702 
3838.275596  	111.461545 
3839.707255  	111.507901 
3841.138913  	111.441946 
3842.570571  	111.479693 
3844.002229  	111.713211 
3845.433887  	111.888165 
3846.865545  	111.750654 
3848.297204  	111.557700 
3849.728862  	111.536213 
3851.160520  	111.373799 
3852.592178  	111.066017 
3854.023836  	111.628210 
3855.455495  	112.154702 
3856.887153  	111.936690 
3858.318811  	111.848577 
3859.750469  	111.720593 
3861.182127  	111.547423 
3862.613786  	111.478961 
3864.045444  	111.332350 
3865.477102  	111.447262 
3866.908760  	111.667941 
3868.340418  	111.334754 
3869.772076  	111.201794 
3871.203735  	111.849165 
3872.635393  	111.740423 
3874.067051  	111.497137 
3875.498709  	111.790242 
3876.930367  	111.783259 
3878.362026  	111.496486 
3879.793684  	111.466110 
3881.225342  	111.717048 
3882.657000  	111.722624 
3884.088658  	111.428806 
3885.520316  	111.310758 
3886.951975  	111.724122 
3888.383633  	111.753647 
3889.815291  	111.485010 
3891.246949  	111.531111 
3892.678607  	111.786046 
3894.110266  	111.769252 
3895.541924  	111.685754 
3896.973582  	111.539081 
3898.405240  	111.350994 
3899.836898  	111.375839 
3901.268557  	111.507905 
3902.700215  	111.487715 
3904.131873  	111.513128 
3905.563531  	111.671394 
3906.995189  	111.762296 
3908.426847  	111.757631 
3909.858506  	111.715249 
3911.290164  	111.752292 
3912.721822  	111.877675 
3914.153480  	111.831504 
3915.585138  	111.617902 
3917.016797  	111.530805 
3918.448455  	111.575175 
3919.880113  	111.606837 
3921.311771  	111.701859 
3922.743429  	111.735633 
3924.175088  	111.711755 
3925.606746  	111.792795 
3927.038404  	111.787173 
3928.470062  	111.704645 
3929.901720  	111.710077 
3931.333378  	111.632775 
3932.765037  	111.555364 
3934.196695  	111.706289 
3935.628353  	111.762933 
3937.060011  	111.676581 
3938.491669  	111.670396 
3939.923328  	111.647626 
3941.354986  	111.543702 
3942.786644  	111.540024 
3944.218302  	111.690834 
3945.649960  	111.789852 
3947.081618  	111.778515 
3948.513277  	111.803308 
3949.944935  	111.875021 
3951.376593  	111.846905 
3952.808251  	111.754569 
3954.239909  	111.683511 
3955.671568  	111.700201 
3957.103226  	111.828120 
3958.534884  	111.904431 
3959.966542  	111.866091 
3961.398200  	111.811580 
3962.829859  	111.782209 
3964.261517  	111.816628 
3965.693175  	111.842217 
3967.124833  	111.784264 
3968.556491  	111.734695 
3969.988149  	111.705283 
3971.419808  	111.713575 
3972.851466  	111.796014 
3974.283124  	111.809342 
3975.714782  	111.762311 
3977.146440  	111.744879 
3978.578099  	111.732304 
3980.009757  	111.800040 
3981.441415  	111.822185 
3982.873073  	111.647963 
3984.304731  	111.593180 
3985.736389  	111.746102 
3987.168048  	111.785722 
3988.599706  	111.691175 
3990.031364  	111.664627 
3991.463022  	111.715449 
3992.894680  	111.717861 
3994.326339  	111.725293 
3995.757997  	111.849244 
3997.189655  	111.899117 
3998.621313  	111.783995 
4000.052971  	111.712504 