##TITLE=No Description
##DATA TYPE=INFRARED SPECTRUM
##XUNITS=1/CM
##YUNITS=Abs
399.432634  	0.076308 
400.864292  	0.075428 
402.295950  	0.091372 
403.727608  	0.106704 
405.159267  	0.110181 
406.590925  	0.096327 
408.022583  	0.087985 
409.454241  	0.098119 
410.885899  	0.101418 
412.317558  	0.077710 
413.749216  	0.057921 
415.180874  	0.069350 
416.612532  	0.070538 
418.044190  	0.043164 
419.475848  	0.038758 
420.907507  	0.045699 
422.339165  	0.040200 
423.770823  	0.052679 
425.202481  	0.058247 
426.634139  	0.039437 
428.065798  	0.032876 
429.497456  	0.041126 
430.929114  	0.040382 
432.360772  	0.038419 
433.792430  	0.042778 
435.224089  	0.042827 
436.655747  	0.040492 
438.087405  	0.044608 
439.519063  	0.049412 
440.950721  	0.054497 
442.382379  	0.063656 
443.814038  	0.064902 
445.245696  	0.052787 
446.677354  	0.040462 
448.109012  	0.038488 
449.540670  	0.042961 
450.972329  	0.044114 
452.403987  	0.042628 
453.835645  	0.047813 
455.267303  	0.056717 
456.698961  	0.058373 
458.130619  	0.053215 
459.562278  	0.054268 
460.993936  	0.056954 
462.425594  	0.051182 
463.857252  	0.044284 
465.288910  	0.050421 
466.720569  	0.064317 
468.152227  	0.070228 
469.583885  	0.069560 
471.015543  	0.070699 
472.447201  	0.070311 
473.878860  	0.067906 
475.310518  	0.067065 
476.742176  	0.066828 
478.173834  	0.068253 
479.605492  	0.070731 
481.037150  	0.073242 
482.468809  	0.075888 
483.900467  	0.075567 
485.332125  	0.077224 
486.763783  	0.086282 
488.195441  	0.090243 
489.627100  	0.085396 
491.058758  	0.085912 
492.490416  	0.089959 
493.922074  	0.087354 
495.353732  	0.084585 
496.785391  	0.085094 
498.217049  	0.085742 
499.648707  	0.085319 
501.080365  	0.083268 
502.512023  	0.084691 
503.943681  	0.089472 
505.375340  	0.088658 
506.806998  	0.086150 
508.238656  	0.087709 
509.670314  	0.087250 
511.101972  	0.085267 
512.533631  	0.086982 
513.965289  	0.089800 
515.396947  	0.090518 
516.828605  	0.090319 
518.260263  	0.092209 
519.691921  	0.097310 
521.123580  	0.102259 
522.555238  	0.104997 
523.986896  	0.107675 
525.418554  	0.111943 
526.850212  	0.116790 
528.281871  	0.121339 
529.713529  	0.126891 
531.145187  	0.133870 
532.576845  	0.140941 
534.008503  	0.146982 
535.440162  	0.152878 
536.871820  	0.162165 
538.303478  	0.173441 
539.735136  	0.181742 
541.166794  	0.190933 
542.598452  	0.203784 
544.030111  	0.215123 
545.461769  	0.225995 
546.893427  	0.237848 
548.325085  	0.248146 
549.756743  	0.260454 
551.188402  	0.272145 
552.620060  	0.276205 
554.051718  	0.275629 
555.483376  	0.270854 
556.915034  	0.259999 
558.346692  	0.245589 
559.778351  	0.230370 
561.210009  	0.216805 
562.641667  	0.202373 
564.073325  	0.183660 
565.504983  	0.160104 
566.936642  	0.131054 
568.368300  	0.104021 
569.799958  	0.087698 
571.231616  	0.082102 
572.663274  	0.085985 
574.094933  	0.093165 
575.526591  	0.096854 
576.958249  	0.099086 
578.389907  	0.100346 
579.821565  	0.098422 
581.253223  	0.097185 
582.684882  	0.098668 
584.116540  	0.100512 
585.548198  	0.101925 
586.979856  	0.102876 
588.411514  	0.104785 
589.843173  	0.107646 
591.274831  	0.110203 
592.706489  	0.114756 
594.138147  	0.121441 
595.569805  	0.127616 
597.001464  	0.133832 
598.433122  	0.141458 
599.864780  	0.150693 
601.296438  	0.158383 
602.728096  	0.162212 
604.159754  	0.165546 
605.591413  	0.168284 
607.023071  	0.168461 
608.454729  	0.166418 
609.886387  	0.159748 
611.318045  	0.148225 
612.749704  	0.134688 
614.181362  	0.121812 
615.613020  	0.110848 
617.044678  	0.100530 
618.476336  	0.092010 
619.907994  	0.087535 
621.339653  	0.085787 
622.771311  	0.085343 
624.202969  	0.086809 
625.634627  	0.089894 
627.066285  	0.094013 
628.497944  	0.098810 
629.929602  	0.102743 
631.361260  	0.105331 
632.792918  	0.106154 
634.224576  	0.103926 
635.656235  	0.098610 
637.087893  	0.091300 
638.519551  	0.083616 
639.951209  	0.075375 
641.382867  	0.066980 
642.814525  	0.060325 
644.246184  	0.054901 
645.677842  	0.049653 
647.109500  	0.044961 
648.541158  	0.040900 
649.972816  	0.036928 
651.404475  	0.033556 
652.836133  	0.031937 
654.267791  	0.030363 
655.699449  	0.027211 
657.131107  	0.024745 
658.562766  	0.024046 
659.994424  	0.023749 
661.426082  	0.023288 
662.857740  	0.022525 
664.289398  	0.022005 
665.721056  	0.023134 
667.152715  	0.027653 
668.584373  	0.031961 
670.016031  	0.027965 
671.447689  	0.025869 
672.879347  	0.027136 
674.311006  	0.029064 
675.742664  	0.030483 
677.174322  	0.031981 
678.605980  	0.033334 
680.037638  	0.034878 
681.469296  	0.036660 
682.900955  	0.039593 
684.332613  	0.043962 
685.764271  	0.047335 
687.195929  	0.049484 
688.627587  	0.050808 
690.059246  	0.050506 
691.490904  	0.050223 
692.922562  	0.050730 
694.354220  	0.051984 
695.785878  	0.055097 
697.217537  	0.059097 
698.649195  	0.062903 
700.080853  	0.067406 
701.512511  	0.072504 
702.944169  	0.077563 
704.375827  	0.081601 
705.807486  	0.083665 
707.239144  	0.083916 
708.670802  	0.082402 
710.102460  	0.079815 
711.534118  	0.076585 
712.965777  	0.072857 
714.397435  	0.070046 
715.829093  	0.068411 
717.260751  	0.066768 
718.692409  	0.065236 
720.124067  	0.065251 
721.555726  	0.067339 
722.987384  	0.070198 
724.419042  	0.072940 
725.850700  	0.075427 
727.282358  	0.077057 
728.714017  	0.078061 
730.145675  	0.078769 
731.577333  	0.078708 
733.008991  	0.078169 
734.440649  	0.076791 
735.872308  	0.075008 
737.303966  	0.075174 
738.735624  	0.076739 
740.167282  	0.078410 
741.598940  	0.081149 
743.030598  	0.084786 
744.462257  	0.089286 
745.893915  	0.094347 
747.325573  	0.098716 
748.757231  	0.104356 
750.188889  	0.111746 
751.620548  	0.118352 
753.052206  	0.124783 
754.483864  	0.130865 
755.915522  	0.135757 
757.347180  	0.140891 
758.778839  	0.144885 
760.210497  	0.146959 
761.642155  	0.148808 
763.073813  	0.150264 
764.505471  	0.152014 
765.937129  	0.154335 
767.368788  	0.154997 
768.800446  	0.152973 
770.232104  	0.147532 
771.663762  	0.138585 
773.095420  	0.128105 
774.527079  	0.117547 
775.958737  	0.107331 
777.390395  	0.098249 
778.822053  	0.091300 
780.253711  	0.086449 
781.685369  	0.082612 
783.117028  	0.079384 
784.548686  	0.077173 
785.980344  	0.075893 
787.412002  	0.075412 
788.843660  	0.075637 
790.275319  	0.076046 
791.706977  	0.076454 
793.138635  	0.077336 
794.570293  	0.079675 
796.001951  	0.083623 
797.433610  	0.088324 
798.865268  	0.094602 
800.296926  	0.103591 
801.728584  	0.114518 
803.160242  	0.127081 
804.591900  	0.140992 
806.023559  	0.155179 
807.455217  	0.169195 
808.886875  	0.182761 
810.318533  	0.195666 
811.750191  	0.205903 
813.181850  	0.211841 
814.613508  	0.214684 
816.045166  	0.213810 
817.476824  	0.210562 
818.908482  	0.209288 
820.340141  	0.210968 
821.771799  	0.216540 
823.203457  	0.227363 
824.635115  	0.241372 
826.066773  	0.255026 
827.498431  	0.263213 
828.930090  	0.263305 
830.361748  	0.256569 
831.793406  	0.242588 
833.225064  	0.223843 
834.656722  	0.204260 
836.088381  	0.184963 
837.520039  	0.167577 
838.951697  	0.153251 
840.383355  	0.141914 
841.815013  	0.133145 
843.246671  	0.125486 
844.678330  	0.117866 
846.109988  	0.109868 
847.541646  	0.101084 
848.973304  	0.091759 
850.404962  	0.081799 
851.836621  	0.071576 
853.268279  	0.062575 
854.699937  	0.055214 
856.131595  	0.049131 
857.563253  	0.044469 
858.994912  	0.041312 
860.426570  	0.039454 
861.858228  	0.038477 
863.289886  	0.038224 
864.721544  	0.039232 
866.153202  	0.041363 
867.584861  	0.044036 
869.016519  	0.047403 
870.448177  	0.051332 
871.879835  	0.056064 
873.311493  	0.062030 
874.743152  	0.068304 
876.174810  	0.074875 
877.606468  	0.082490 
879.038126  	0.090612 
880.469784  	0.098962 
881.901443  	0.107306 
883.333101  	0.115092 
884.764759  	0.121699 
886.196417  	0.125616 
887.628075  	0.125484 
889.059733  	0.119927 
890.491392  	0.108470 
891.923050  	0.092937 
893.354708  	0.076296 
894.786366  	0.062015 
896.218024  	0.052029 
897.649683  	0.046048 
899.081341  	0.043163 
900.512999  	0.042233 
901.944657  	0.042210 
903.376315  	0.042847 
904.807973  	0.043945 
906.239632  	0.045436 
907.671290  	0.047274 
909.102948  	0.048810 
910.534606  	0.050488 
911.966264  	0.053265 
913.397923  	0.056736 
914.829581  	0.060031 
916.261239  	0.062262 
917.692897  	0.063602 
919.124555  	0.064697 
920.556214  	0.064476 
921.987872  	0.063110 
923.419530  	0.061924 
924.851188  	0.060641 
926.282846  	0.060220 
927.714504  	0.061815 
929.146163  	0.064146 
930.577821  	0.066828 
932.009479  	0.070093 
933.441137  	0.072939 
934.872795  	0.074761 
936.304454  	0.075666 
937.736112  	0.076691 
939.167770  	0.078454 
940.599428  	0.080040 
942.031086  	0.081302 
943.462744  	0.082257 
944.894403  	0.082289 
946.326061  	0.081845 
947.757719  	0.081351 
949.189377  	0.080846 
950.621035  	0.080903 
952.052694  	0.081867 
953.484352  	0.083958 
954.916010  	0.086973 
956.347668  	0.090088 
957.779326  	0.092900 
959.210985  	0.094965 
960.642643  	0.096217 
962.074301  	0.097326 
963.505959  	0.098277 
964.937617  	0.098808 
966.369275  	0.099249 
967.800934  	0.100303 
969.232592  	0.102241 
970.664250  	0.104419 
972.095908  	0.106919 
973.527566  	0.110230 
974.959225  	0.113799 
976.390883  	0.117799 
977.822541  	0.122746 
979.254199  	0.128751 
980.685857  	0.136616 
982.117516  	0.144025 
983.549174  	0.145177 
984.980832  	0.140230 
986.412490  	0.137745 
987.844148  	0.143161 
989.275806  	0.152732 
990.707465  	0.162252 
992.139123  	0.171386 
993.570781  	0.178729 
995.002439  	0.184360 
996.434097  	0.190819 
997.865756  	0.199561 
999.297414  	0.213189 
1000.729072  	0.232923 
1002.160730  	0.256014 
1003.592388  	0.278184 
1005.024046  	0.292427 
1006.455705  	0.297527 
1007.887363  	0.300937 
1009.319021  	0.308944 
1010.750679  	0.330441 
1012.182337  	0.366947 
1013.613996  	0.388874 
1015.045654  	0.359083 
1016.477312  	0.288561 
1017.908970  	0.217815 
1019.340628  	0.165463 
1020.772287  	0.131168 
1022.203945  	0.110585 
1023.635603  	0.097467 
1025.067261  	0.088968 
1026.498919  	0.085883 
1027.930577  	0.086482 
1029.362236  	0.088598 
1030.793894  	0.092208 
1032.225552  	0.096262 
1033.657210  	0.100306 
1035.088868  	0.105066 
1036.520527  	0.109633 
1037.952185  	0.113812 
1039.383843  	0.118050 
1040.815501  	0.121994 
1042.247159  	0.126143 
1043.678818  	0.130475 
1045.110476  	0.134592 
1046.542134  	0.138661 
1047.973792  	0.142620 
1049.405450  	0.147012 
1050.837108  	0.151377 
1052.268767  	0.155246 
1053.700425  	0.159768 
1055.132083  	0.164236 
1056.563741  	0.168567 
1057.995399  	0.173708 
1059.427058  	0.178320 
1060.858716  	0.182977 
1062.290374  	0.188400 
1063.722032  	0.193852 
1065.153690  	0.200584 
1066.585348  	0.207468 
1068.017007  	0.213918 
1069.448665  	0.222081 
1070.880323  	0.230723 
1072.311981  	0.240838 
1073.743639  	0.254585 
1075.175298  	0.272156 
1076.606956  	0.297067 
1078.038614  	0.322126 
1079.470272  	0.329175 
1080.901930  	0.312671 
1082.333589  	0.278311 
1083.765247  	0.239276 
1085.196905  	0.206718 
1086.628563  	0.183860 
1088.060221  	0.171678 
1089.491879  	0.167931 
1090.923538  	0.168746 
1092.355196  	0.172724 
1093.786854  	0.178689 
1095.218512  	0.186793 
1096.650170  	0.197396 
1098.081829  	0.207900 
1099.513487  	0.217697 
1100.945145  	0.224573 
1102.376803  	0.225113 
1103.808461  	0.222717 
1105.240120  	0.220035 
1106.671778  	0.218436 
1108.103436  	0.218937 
1109.535094  	0.217759 
1110.966752  	0.214404 
1112.398410  	0.210867 
1113.830069  	0.206940 
1115.261727  	0.204371 
1116.693385  	0.202908 
1118.125043  	0.201736 
1119.556701  	0.202319 
1120.988360  	0.203378 
1122.420018  	0.205079 
1123.851676  	0.208553 
1125.283334  	0.212152 
1126.714992  	0.216812 
1128.146650  	0.222265 
1129.578309  	0.227084 
1131.009967  	0.233516 
1132.441625  	0.241031 
1133.873283  	0.249066 
1135.304941  	0.258978 
1136.736600  	0.269351 
1138.168258  	0.281114 
1139.599916  	0.294163 
1141.031574  	0.307118 
1142.463232  	0.322915 
1143.894891  	0.339975 
1145.326549  	0.357252 
1146.758207  	0.377264 
1148.189865  	0.397008 
1149.621523  	0.418229 
1151.053181  	0.441999 
1152.484840  	0.464126 
1153.916498  	0.487620 
1155.348156  	0.508420 
1156.779814  	0.522644 
1158.211472  	0.533125 
1159.643131  	0.530124 
1161.074789  	0.512487 
1162.506447  	0.483863 
1163.938105  	0.442879 
1165.369763  	0.396833 
1166.801421  	0.349012 
1168.233080  	0.304914 
1169.664738  	0.273358 
1171.096396  	0.256616 
1172.528054  	0.256978 
1173.959712  	0.274651 
1175.391371  	0.302259 
1176.823029  	0.332725 
1178.254687  	0.360786 
1179.686345  	0.385153 
1181.118003  	0.412657 
1182.549662  	0.442952 
1183.981320  	0.472347 
1185.412978  	0.496224 
1186.844636  	0.503774 
1188.276294  	0.499026 
1189.707952  	0.486244 
1191.139611  	0.464201 
1192.571269  	0.439984 
1194.002927  	0.413257 
1195.434585  	0.384354 
1196.866243  	0.356006 
1198.297902  	0.325819 
1199.729560  	0.296868 
1201.161218  	0.270337 
1202.592876  	0.245233 
1204.024534  	0.225900 
1205.456193  	0.214807 
1206.887851  	0.214563 
1208.319509  	0.228500 
1209.751167  	0.253764 
1211.182825  	0.286369 
1212.614483  	0.321854 
1214.046142  	0.351681 
1215.477800  	0.374728 
1216.909458  	0.389782 
1218.341116  	0.395117 
1219.772774  	0.396306 
1221.204433  	0.392297 
1222.636091  	0.384559 
1224.067749  	0.376471 
1225.499407  	0.365245 
1226.931065  	0.353912 
1228.362723  	0.342955 
1229.794382  	0.330631 
1231.226040  	0.319891 
1232.657698  	0.308836 
1234.089356  	0.297708 
1235.521014  	0.288273 
1236.952673  	0.277761 
1238.384331  	0.268064 
1239.815989  	0.259418 
1241.247647  	0.249682 
1242.679305  	0.241141 
1244.110964  	0.232249 
1245.542622  	0.221761 
1246.974280  	0.211294 
1248.405938  	0.199222 
1249.837596  	0.186232 
1251.269254  	0.172589 
1252.700913  	0.156924 
1254.132571  	0.141121 
1255.564229  	0.124989 
1256.995887  	0.108081 
1258.427545  	0.092100 
1259.859204  	0.076871 
1261.290862  	0.062547 
1262.722520  	0.049873 
1264.154178  	0.038772 
1265.585836  	0.029550 
1267.017495  	0.022198 
1268.449153  	0.016295 
1269.880811  	0.011589 
1271.312469  	0.007783 
1272.744127  	0.004934 
1274.175785  	0.003149 
1275.607444  	0.002035 
1277.039102  	0.001574 
1278.470760  	0.002050 
1279.902418  	0.003089 
1281.334076  	0.004412 
1282.765735  	0.006209 
1284.197393  	0.008437 
1285.629051  	0.010749 
1287.060709  	0.012689 
1288.492367  	0.014351 
1289.924025  	0.015790 
1291.355684  	0.016220 
1292.787342  	0.015239 
1294.219000  	0.013041 
1295.650658  	0.009943 
1297.082316  	0.006305 
1298.513975  	0.002333 
1299.945633  	-0.001665 
1301.377291  	-0.005007 
1302.808949  	-0.007464 
1304.240607  	-0.009149 
1305.672266  	-0.009554 
1307.103924  	-0.008808 
1308.535582  	-0.007766 
1309.967240  	-0.007435 
1311.398898  	-0.008870 
1312.830556  	-0.011972 
1314.262215  	-0.015693 
1315.693873  	-0.019223 
1317.125531  	-0.021776 
1318.557189  	-0.023238 
1319.988847  	-0.024353 
1321.420506  	-0.025037 
1322.852164  	-0.025422 
1324.283822  	-0.025704 
1325.715480  	-0.025844 
1327.147138  	-0.026270 
1328.578796  	-0.026508 
1330.010455  	-0.026386 
1331.442113  	-0.026601 
1332.873771  	-0.026705 
1334.305429  	-0.026694 
1335.737087  	-0.026803 
1337.168746  	-0.026482 
1338.600404  	-0.026249 
1340.032062  	-0.026337 
1341.463720  	-0.026312 
1342.895378  	-0.026456 
1344.327037  	-0.026488 
1345.758695  	-0.026475 
1347.190353  	-0.026453 
1348.622011  	-0.025913 
1350.053669  	-0.025639 
1351.485327  	-0.025613 
1352.916986  	-0.025104 
1354.348644  	-0.024572 
1355.780302  	-0.023609 
1357.211960  	-0.022139 
1358.643618  	-0.019653 
1360.075277  	-0.013901 
1361.506935  	-0.004822 
1362.938593  	0.005497 
1364.370251  	0.010422 
1365.801909  	0.007249 
1367.233568  	-0.000617 
1368.665226  	-0.009573 
1370.096884  	-0.016292 
1371.528542  	-0.019845 
1372.960200  	-0.021267 
1374.391858  	-0.022407 
1375.823517  	-0.022926 
1377.255175  	-0.022577 
1378.686833  	-0.021980 
1380.118491  	-0.020685 
1381.550149  	-0.018411 
1382.981808  	-0.014292 
1384.413466  	-0.009263 
1385.845124  	-0.005574 
1387.276782  	-0.005132 
1388.708440  	-0.008313 
1390.140098  	-0.012076 
1391.571757  	-0.015620 
1393.003415  	-0.017845 
1394.435073  	-0.018706 
1395.866731  	-0.018975 
1397.298389  	-0.018179 
1398.730048  	-0.016549 
1400.161706  	-0.014777 
1401.593364  	-0.012126 
1403.025022  	-0.008263 
1404.456680  	-0.003752 
1405.888339  	0.001674 
1407.319997  	0.006832 
1408.751655  	0.009564 
1410.183313  	0.009732 
1411.614971  	0.006552 
1413.046629  	0.000860 
1414.478288  	-0.005022 
1415.909946  	-0.010852 
1417.341604  	-0.015213 
1418.773262  	-0.018085 
1420.204920  	-0.021382 
1421.636579  	-0.022652 
1423.068237  	-0.022915 
1424.499895  	-0.023878 
1425.931553  	-0.024213 
1427.363211  	-0.024056 
1428.794870  	-0.024011 
1430.226528  	-0.023699 
1431.658186  	-0.023881 
1433.089844  	-0.023832 
1434.521502  	-0.023114 
1435.953160  	-0.022771 
1437.384819  	-0.022320 
1438.816477  	-0.021459 
1440.248135  	-0.020217 
1441.679793  	-0.018384 
1443.111451  	-0.017193 
1444.543110  	-0.015947 
1445.974768  	-0.014244 
1447.406426  	-0.013095 
1448.838084  	-0.011683 
1450.269742  	-0.010384 
1451.701400  	-0.009890 
1453.133059  	-0.009702 
1454.564717  	-0.009510 
1455.996375  	-0.008587 
1457.428033  	-0.006016 
1458.859691  	-0.003356 
1460.291350  	0.000152 
1461.723008  	0.003361 
1463.154666  	0.005830 
1464.586324  	0.007484 
1466.017982  	0.006237 
1467.449641  	0.005060 
1468.881299  	0.003813 
1470.312957  	0.002228 
1471.744615  	0.002085 
1473.176273  	0.000626 
1474.607931  	-0.000740 
1476.039590  	0.000192 
1477.471248  	0.000011 
1478.902906  	0.000606 
1480.334564  	0.002833 
1481.766222  	0.004510 
1483.197881  	0.007762 
1484.629539  	0.012626 
1486.061197  	0.017846 
1487.492855  	0.026033 
1488.924513  	0.035166 
1490.356172  	0.045501 
1491.787830  	0.060870 
1493.219488  	0.074335 
1494.651146  	0.088791 
1496.082804  	0.109065 
1497.514462  	0.128250 
1498.946121  	0.147498 
1500.377779  	0.165823 
1501.809437  	0.174658 
1503.241095  	0.179664 
1504.672753  	0.179747 
1506.104412  	0.166406 
1507.536070  	0.138150 
1508.967728  	0.110811 
1510.399386  	0.085833 
1511.831044  	0.061816 
1513.262702  	0.039452 
1514.694361  	0.023644 
1516.126019  	0.012843 
1517.557677  	0.000853 
1518.989335  	-0.006567 
1520.420993  	-0.009381 
1521.852652  	-0.014970 
1523.284310  	-0.018682 
1524.715968  	-0.019407 
1526.147626  	-0.021656 
1527.579284  	-0.023190 
1529.010943  	-0.024094 
1530.442601  	-0.025400 
1531.874259  	-0.025203 
1533.305917  	-0.025204 
1534.737575  	-0.026930 
1536.169233  	-0.027182 
1537.600892  	-0.027133 
1539.032550  	-0.027000 
1540.464208  	-0.027386 
1541.895866  	-0.029146 
1543.327524  	-0.029084 
1544.759183  	-0.029159 
1546.190841  	-0.030162 
1547.622499  	-0.029863 
1549.054157  	-0.029480 
1550.485815  	-0.030047 
1551.917473  	-0.030184 
1553.349132  	-0.030009 
1554.780790  	-0.030028 
1556.212448  	-0.029859 
1557.644106  	-0.029135 
1559.075764  	-0.028972 
1560.507423  	-0.031734 
1561.939081  	-0.031496 
1563.370739  	-0.030797 
1564.802397  	-0.030936 
1566.234055  	-0.031086 
1567.665714  	-0.030565 
1569.097372  	-0.030346 
1570.529030  	-0.030719 
1571.960688  	-0.030761 
1573.392346  	-0.030268 
1574.824004  	-0.029515 
1576.255663  	-0.029372 
1577.687321  	-0.029550 
1579.118979  	-0.029189 
1580.550637  	-0.028732 
1581.982295  	-0.027916 
1583.413954  	-0.026642 
1584.845612  	-0.024932 
1586.277270  	-0.022755 
1587.708928  	-0.020244 
1589.140586  	-0.017365 
1590.572245  	-0.014881 
1592.003903  	-0.013146 
1593.435561  	-0.012354 
1594.867219  	-0.012671 
1596.298877  	-0.013216 
1597.730535  	-0.013544 
1599.162194  	-0.013359 
1600.593852  	-0.012687 
1602.025510  	-0.012152 
1603.457168  	-0.012151 
1604.888826  	-0.013280 
1606.320485  	-0.015146 
1607.752143  	-0.017266 
1609.183801  	-0.019790 
1610.615459  	-0.021972 
1612.047117  	-0.023860 
1613.478775  	-0.025151 
1614.910434  	-0.025487 
1616.342092  	-0.026112 
1617.773750  	-0.027781 
1619.205408  	-0.028440 
1620.637066  	-0.028293 
1622.068725  	-0.028109 
1623.500383  	-0.028761 
1624.932041  	-0.029450 
1626.363699  	-0.029347 
1627.795357  	-0.029466 
1629.227016  	-0.029656 
1630.658674  	-0.029343 
1632.090332  	-0.028984 
1633.521990  	-0.028399 
1634.953648  	-0.027768 
1636.385306  	-0.028314 
1637.816965  	-0.028451 
1639.248623  	-0.028125 
1640.680281  	-0.028231 
1642.111939  	-0.028079 
1643.543597  	-0.027434 
1644.975256  	-0.026700 
1646.406914  	-0.026290 
1647.838572  	-0.027108 
1649.270230  	-0.027327 
1650.701888  	-0.026480 
1652.133547  	-0.025542 
1653.565205  	-0.026789 
1654.996863  	-0.027872 
1656.428521  	-0.027385 
1657.860179  	-0.027101 
1659.291837  	-0.027258 
1660.723496  	-0.027220 
1662.155154  	-0.026968 
1663.586812  	-0.027297 
1665.018470  	-0.027550 
1666.450128  	-0.027424 
1667.881787  	-0.027239 
1669.313445  	-0.027095 
1670.745103  	-0.027796 
1672.176761  	-0.028318 
1673.608419  	-0.027822 
1675.040077  	-0.027708 
1676.471736  	-0.028558 
1677.903394  	-0.028406 
1679.335052  	-0.027965 
1680.766710  	-0.027858 
1682.198368  	-0.027399 
1683.630027  	-0.026563 
1685.061685  	-0.027935 
1686.493343  	-0.028515 
1687.925001  	-0.027731 
1689.356659  	-0.027280 
1690.788318  	-0.027266 
1692.219976  	-0.026767 
1693.651634  	-0.025980 
1695.083292  	-0.025026 
1696.514950  	-0.025050 
1697.946608  	-0.025095 
1699.378267  	-0.023735 
1700.809925  	-0.023809 
1702.241583  	-0.024125 
1703.673241  	-0.022332 
1705.104899  	-0.021448 
1706.536558  	-0.021478 
1707.968216  	-0.020257 
1709.399874  	-0.019630 
1710.831532  	-0.019039 
1712.263190  	-0.017882 
1713.694849  	-0.017017 
1715.126507  	-0.015407 
1716.558165  	-0.014080 
1717.989823  	-0.014081 
1719.421481  	-0.013121 
1720.853139  	-0.012173 
1722.284798  	-0.010713 
1723.716456  	-0.008691 
1725.148114  	-0.007550 
1726.579772  	-0.005837 
1728.011430  	-0.003881 
1729.443089  	-0.002416 
1730.874747  	-0.000332 
1732.306405  	0.001086 
1733.738063  	0.002336 
1735.169721  	0.003960 
1736.601379  	0.005148 
1738.033038  	0.007951 
1739.464696  	0.010667 
1740.896354  	0.012243 
1742.328012  	0.015957 
1743.759670  	0.019149 
1745.191329  	0.022577 
1746.622987  	0.028340 
1748.054645  	0.033231 
1749.486303  	0.039427 
1750.917961  	0.047387 
1752.349620  	0.055060 
1753.781278  	0.066465 
1755.212936  	0.078187 
1756.644594  	0.091418 
1758.076252  	0.111750 
1759.507910  	0.130788 
1760.939569  	0.150444 
1762.371227  	0.176881 
1763.802885  	0.197535 
1765.234543  	0.212815 
1766.666201  	0.226688 
1768.097860  	0.230974 
1769.529518  	0.230982 
1770.961176  	0.229622 
1772.392834  	0.217279 
1773.824492  	0.206140 
1775.256150  	0.196695 
1776.687809  	0.181445 
1778.119467  	0.168837 
1779.551125  	0.156069 
1780.982783  	0.138958 
1782.414441  	0.125491 
1783.846100  	0.111724 
1785.277758  	0.096045 
1786.709416  	0.083320 
1788.141074  	0.069633 
1789.572732  	0.057434 
1791.004391  	0.047583 
1792.436049  	0.033117 
1793.867707  	0.021907 
1795.299365  	0.014495 
1796.731023  	0.005689 
1798.162681  	0.000065 
1799.594340  	-0.005076 
1801.025998  	-0.010718 
1802.457656  	-0.013445 
1803.889314  	-0.017267 
1805.320972  	-0.019927 
1806.752631  	-0.021033 
1808.184289  	-0.023808 
1809.615947  	-0.024964 
1811.047605  	-0.025743 
1812.479263  	-0.027522 
1813.910922  	-0.027622 
1815.342580  	-0.028664 
1816.774238  	-0.029755 
1818.205896  	-0.029738 
1819.637554  	-0.030772 
1821.069212  	-0.030636 
1822.500871  	-0.030585 
1823.932529  	-0.031524 
1825.364187  	-0.030927 
1826.795845  	-0.031465 
1828.227503  	-0.031978 
1829.659162  	-0.031397 
1831.090820  	-0.032737 
1832.522478  	-0.032730 
1833.954136  	-0.032362 
1835.385794  	-0.033284 
1836.817452  	-0.032688 
1838.249111  	-0.032756 
1839.680769  	-0.033584 
1841.112427  	-0.032811 
1842.544085  	-0.032917 
1843.975743  	-0.033561 
1845.407402  	-0.033896 
1846.839060  	-0.034481 
1848.270718  	-0.033861 
1849.702376  	-0.033826 
1851.134034  	-0.033853 
1852.565693  	-0.033060 
1853.997351  	-0.034051 
1855.429009  	-0.034336 
1856.860667  	-0.033404 
1858.292325  	-0.033957 
1859.723983  	-0.033925 
1861.155642  	-0.033997 
1862.587300  	-0.034522 
1864.018958  	-0.033902 
1865.450616  	-0.034282 
1866.882274  	-0.034048 
1868.313933  	-0.032866 
1869.745591  	-0.034195 
1871.177249  	-0.033964 
1872.608907  	-0.033015 
1874.040565  	-0.033557 
1875.472224  	-0.033079 
1876.903882  	-0.033230 
1878.335540  	-0.034001 
1879.767198  	-0.033443 
1881.198856  	-0.033669 
1882.630514  	-0.033647 
1884.062173  	-0.033036 
1885.493831  	-0.032998 
1886.925489  	-0.032075 
1888.357147  	-0.031860 
1889.788805  	-0.032260 
1891.220464  	-0.031681 
1892.652122  	-0.031926 
1894.083780  	-0.031398 
1895.515438  	-0.030377 
1896.947096  	-0.030663 
1898.378754  	-0.030188 
1899.810413  	-0.030501 
1901.242071  	-0.031151 
1902.673729  	-0.030126 
1904.105387  	-0.030707 
1905.537045  	-0.031719 
1906.968704  	-0.031622 
1908.400362  	-0.032342 
1909.832020  	-0.032259 
1911.263678  	-0.032815 
1912.695336  	-0.034187 
1914.126995  	-0.033801 
1915.558653  	-0.034766 
1916.990311  	-0.035784 
1918.421969  	-0.034376 
1919.853627  	-0.034849 
1921.285285  	-0.035139 
1922.716944  	-0.034546 
1924.148602  	-0.035219 
1925.580260  	-0.034446 
1927.011918  	-0.034232 
1928.443576  	-0.035448 
1929.875235  	-0.035424 
1931.306893  	-0.035794 
1932.738551  	-0.035651 
1934.170209  	-0.035483 
1935.601867  	-0.037030 
1937.033525  	-0.036587 
1938.465184  	-0.035566 
1939.896842  	-0.035380 
1941.328500  	-0.034366 
1942.760158  	-0.035538 
1944.191816  	-0.036083 
1945.623475  	-0.034727 
1947.055133  	-0.035749 
1948.486791  	-0.035742 
1949.918449  	-0.034560 
1951.350107  	-0.034479 
1952.781766  	-0.034034 
1954.213424  	-0.035494 
1955.645082  	-0.036508 
1957.076740  	-0.035226 
1958.508398  	-0.035502 
1959.940056  	-0.034019 
1961.371715  	-0.032678 
1962.803373  	-0.034367 
1964.235031  	-0.033550 
1965.666689  	-0.033168 
1967.098347  	-0.034357 
1968.530006  	-0.034218 
1969.961664  	-0.035125 
1971.393322  	-0.033691 
1972.824980  	-0.032733 
1974.256638  	-0.035291 
1975.688297  	-0.033721 
1977.119955  	-0.032612 
1978.551613  	-0.035069 
1979.983271  	-0.035379 
1981.414929  	-0.035930 
1982.846587  	-0.035150 
1984.278246  	-0.034146 
1985.709904  	-0.035574 
1987.141562  	-0.034790 
1988.573220  	-0.034440 
1990.004878  	-0.035139 
1991.436537  	-0.033992 
1992.868195  	-0.035969 
1994.299853  	-0.036900 
1995.731511  	-0.034246 
1997.163169  	-0.034247 
1998.594827  	-0.034308 
2000.026486  	-0.034459 
2001.458144  	-0.036123 
2002.889802  	-0.035116 
2004.321460  	-0.034855 
2005.753118  	-0.035553 
2007.184777  	-0.034635 
2008.616435  	-0.035204 
2010.048093  	-0.034528 
2011.479751  	-0.034204 
2012.911409  	-0.035555 
2014.343068  	-0.033741 
2015.774726  	-0.033012 
2017.206384  	-0.033309 
2018.638042  	-0.032760 
2020.069700  	-0.035147 
2021.501358  	-0.034583 
2022.933017  	-0.032562 
2024.364675  	-0.034441 
2025.796333  	-0.033757 
2027.227991  	-0.033474 
2028.659649  	-0.035118 
2030.091308  	-0.033814 
2031.522966  	-0.033559 
2032.954624  	-0.032591 
2034.386282  	-0.031853 
2035.817940  	-0.034341 
2037.249599  	-0.033564 
2038.681257  	-0.033039 
2040.112915  	-0.033724 
2041.544573  	-0.031233 
2042.976231  	-0.032506 
2044.407889  	-0.034937 
2045.839548  	-0.033535 
2047.271206  	-0.034085 
2048.702864  	-0.034504 
2050.134522  	-0.033407 
2051.566180  	-0.033582 
2052.997839  	-0.033337 
2054.429497  	-0.032893 
2055.861155  	-0.031612 
2057.292813  	-0.031421 
2058.724471  	-0.034591 
2060.156129  	-0.035319 
2061.587788  	-0.033843 
2063.019446  	-0.034517 
2064.451104  	-0.034929 
2065.882762  	-0.035650 
2067.314420  	-0.036230 
2068.746079  	-0.035288 
2070.177737  	-0.035783 
2071.609395  	-0.035448 
2073.041053  	-0.034398 
2074.472711  	-0.035768 
2075.904370  	-0.035947 
2077.336028  	-0.035317 
2078.767686  	-0.035861 
2080.199344  	-0.035557 
2081.631002  	-0.035797 
2083.062660  	-0.036036 
2084.494319  	-0.035260 
2085.925977  	-0.035387 
2087.357635  	-0.035235 
2088.789293  	-0.035210 
2090.220951  	-0.035894 
2091.652610  	-0.035557 
2093.084268  	-0.035944 
2094.515926  	-0.036768 
2095.947584  	-0.036992 
2097.379242  	-0.038106 
2098.810901  	-0.037633 
2100.242559  	-0.036008 
2101.674217  	-0.035825 
2103.105875  	-0.035609 
2104.537533  	-0.036547 
2105.969191  	-0.037881 
2107.400850  	-0.037011 
2108.832508  	-0.036610 
2110.264166  	-0.036723 
2111.695824  	-0.036028 
2113.127482  	-0.035589 
2114.559141  	-0.035318 
2115.990799  	-0.036267 
2117.422457  	-0.037193 
2118.854115  	-0.036557 
2120.285773  	-0.036787 
2121.717431  	-0.036587 
2123.149090  	-0.035968 
2124.580748  	-0.037286 
2126.012406  	-0.036800 
2127.444064  	-0.035261 
2128.875722  	-0.036026 
2130.307381  	-0.036029 
2131.739039  	-0.035844 
2133.170697  	-0.036423 
2134.602355  	-0.036016 
2136.034013  	-0.036410 
2137.465672  	-0.035595 
2138.897330  	-0.033546 
2140.328988  	-0.034216 
2141.760646  	-0.034983 
2143.192304  	-0.034965 
2144.623962  	-0.034946 
2146.055621  	-0.033878 
2147.487279  	-0.034271 
2148.918937  	-0.034646 
2150.350595  	-0.033995 
2151.782253  	-0.034185 
2153.213912  	-0.032360 
2154.645570  	-0.031832 
2156.077228  	-0.034841 
2157.508886  	-0.035021 
2158.940544  	-0.033420 
2160.372202  	-0.031803 
2161.803861  	-0.031161 
2163.235519  	-0.033270 
2164.667177  	-0.034088 
2166.098835  	-0.034323 
2167.530493  	-0.034721 
2168.962152  	-0.033980 
2170.393810  	-0.035328 
2171.825468  	-0.035240 
2173.257126  	-0.033281 
2174.688784  	-0.034463 
2176.120443  	-0.033784 
2177.552101  	-0.031982 
2178.983759  	-0.033690 
2180.415417  	-0.034371 
2181.847075  	-0.034809 
2183.278733  	-0.035396 
2184.710392  	-0.033677 
2186.142050  	-0.033369 
2187.573708  	-0.032952 
2189.005366  	-0.031995 
2190.437024  	-0.033753 
2191.868683  	-0.034150 
2193.300341  	-0.032779 
2194.731999  	-0.033067 
2196.163657  	-0.033644 
2197.595315  	-0.034151 
2199.026974  	-0.034298 
2200.458632  	-0.034283 
2201.890290  	-0.035266 
2203.321948  	-0.035678 
2204.753606  	-0.035454 
2206.185264  	-0.034559 
2207.616923  	-0.033312 
2209.048581  	-0.034236 
2210.480239  	-0.035002 
2211.911897  	-0.034581 
2213.343555  	-0.035221 
2214.775214  	-0.034830 
2216.206872  	-0.033996 
2217.638530  	-0.034436 
2219.070188  	-0.034468 
2220.501846  	-0.034096 
2221.933504  	-0.032809 
2223.365163  	-0.032294 
2224.796821  	-0.034036 
2226.228479  	-0.033312 
2227.660137  	-0.031782 
2229.091795  	-0.033580 
2230.523454  	-0.034521 
2231.955112  	-0.034090 
2233.386770  	-0.034409 
2234.818428  	-0.034262 
2236.250086  	-0.034621 
2237.681745  	-0.035061 
2239.113403  	-0.034383 
2240.545061  	-0.033800 
2241.976719  	-0.033440 
2243.408377  	-0.033906 
2244.840035  	-0.034699 
2246.271694  	-0.034531 
2247.703352  	-0.034727 
2249.135010  	-0.034652 
2250.566668  	-0.033933 
2251.998326  	-0.034595 
2253.429985  	-0.035424 
2254.861643  	-0.035136 
2256.293301  	-0.034647 
2257.724959  	-0.034455 
2259.156617  	-0.035212 
2260.588276  	-0.036098 
2262.019934  	-0.036264 
2263.451592  	-0.036315 
2264.883250  	-0.036081 
2266.314908  	-0.036274 
2267.746566  	-0.036991 
2269.178225  	-0.037077 
2270.609883  	-0.037034 
2272.041541  	-0.036681 
2273.473199  	-0.036412 
2274.904857  	-0.037293 
2276.336516  	-0.037492 
2277.768174  	-0.037098 
2279.199832  	-0.037553 
2280.631490  	-0.037424 
2282.063148  	-0.036957 
2283.494806  	-0.037159 
2284.926465  	-0.037196 
2286.358123  	-0.036988 
2287.789781  	-0.036828 
2289.221439  	-0.037225 
2290.653097  	-0.037876 
2292.084756  	-0.037430 
2293.516414  	-0.036753 
2294.948072  	-0.036622 
2296.379730  	-0.036279 
2297.811388  	-0.036227 
2299.243047  	-0.036306 
2300.674705  	-0.035777 
2302.106363  	-0.035244 
2303.538021  	-0.034903 
2304.969679  	-0.034735 
2306.401337  	-0.034417 
2307.832996  	-0.033429 
2309.264654  	-0.032740 
2310.696312  	-0.032622 
2312.127970  	-0.032253 
2313.559628  	-0.031854 
2314.991287  	-0.031709 
2316.422945  	-0.031663 
2317.854603  	-0.031031 
2319.286261  	-0.029374 
2320.717919  	-0.027889 
2322.149577  	-0.027264 
2323.581236  	-0.027363 
2325.012894  	-0.027752 
2326.444552  	-0.027185 
2327.876210  	-0.026017 
2329.307868  	-0.025448 
2330.739527  	-0.025184 
2332.171185  	-0.025122 
2333.602843  	-0.025413 
2335.034501  	-0.025715 
2336.466159  	-0.025754 
2337.897818  	-0.025291 
2339.329476  	-0.025065 
2340.761134  	-0.025021 
2342.192792  	-0.024293 
2343.624450  	-0.024081 
2345.056108  	-0.024715 
2346.487767  	-0.026225 
2347.919425  	-0.028999 
2349.351083  	-0.030139 
2350.782741  	-0.028126 
2352.214399  	-0.025438 
2353.646058  	-0.024134 
2355.077716  	-0.023006 
2356.509374  	-0.021868 
2357.941032  	-0.020925 
2359.372690  	-0.020036 
2360.804349  	-0.019738 
2362.236007  	-0.020216 
2363.667665  	-0.021302 
2365.099323  	-0.022119 
2366.530981  	-0.022459 
2367.962639  	-0.023160 
2369.394298  	-0.024178 
2370.825956  	-0.025534 
2372.257614  	-0.027038 
2373.689272  	-0.028243 
2375.120930  	-0.029501 
2376.552589  	-0.030588 
2377.984247  	-0.031661 
2379.415905  	-0.033235 
2380.847563  	-0.034371 
2382.279221  	-0.035017 
2383.710879  	-0.036105 
2385.142538  	-0.037181 
2386.574196  	-0.037638 
2388.005854  	-0.037539 
2389.437512  	-0.037176 
2390.869170  	-0.037041 
2392.300829  	-0.037140 
2393.732487  	-0.037256 
2395.164145  	-0.037448 
2396.595803  	-0.037676 
2398.027461  	-0.037683 
2399.459120  	-0.037381 
2400.890778  	-0.037238 
2402.322436  	-0.037186 
2403.754094  	-0.036799 
2405.185752  	-0.036734 
2406.617410  	-0.036995 
2408.049069  	-0.036927 
2409.480727  	-0.036900 
2410.912385  	-0.036792 
2412.344043  	-0.036615 
2413.775701  	-0.036906 
2415.207360  	-0.037031 
2416.639018  	-0.037134 
2418.070676  	-0.037779 
2419.502334  	-0.038010 
2420.933992  	-0.037757 
2422.365651  	-0.037530 
2423.797309  	-0.037207 
2425.228967  	-0.037308 
2426.660625  	-0.037824 
2428.092283  	-0.037983 
2429.523941  	-0.037639 
2430.955600  	-0.037228 
2432.387258  	-0.037398 
2433.818916  	-0.037884 
2435.250574  	-0.038012 
2436.682232  	-0.037871 
2438.113891  	-0.037580 
2439.545549  	-0.037500 
2440.977207  	-0.037577 
2442.408865  	-0.037316 
2443.840523  	-0.037376 
2445.272181  	-0.037616 
2446.703840  	-0.037372 
2448.135498  	-0.037501 
2449.567156  	-0.037970 
2450.998814  	-0.038255 
2452.430472  	-0.038493 
2453.862131  	-0.038262 
2455.293789  	-0.038031 
2456.725447  	-0.038128 
2458.157105  	-0.037882 
2459.588763  	-0.037810 
2461.020422  	-0.037862 
2462.452080  	-0.037700 
2463.883738  	-0.038149 
2465.315396  	-0.038386 
2466.747054  	-0.037829 
2468.178712  	-0.037737 
2469.610371  	-0.037964 
2471.042029  	-0.037972 
2472.473687  	-0.038063 
2473.905345  	-0.038147 
2475.337003  	-0.038051 
2476.768662  	-0.037647 
2478.200320  	-0.037367 
2479.631978  	-0.037584 
2481.063636  	-0.037787 
2482.495294  	-0.038005 
2483.926953  	-0.038110 
2485.358611  	-0.037902 
2486.790269  	-0.038196 
2488.221927  	-0.038616 
2489.653585  	-0.038542 
2491.085243  	-0.038661 
2492.516902  	-0.038805 
2493.948560  	-0.038762 
2495.380218  	-0.038750 
2496.811876  	-0.038501 
2498.243534  	-0.038488 
2499.675193  	-0.038890 
2501.106851  	-0.039084 
2502.538509  	-0.039194 
2503.970167  	-0.039326 
2505.401825  	-0.039154 
2506.833483  	-0.038739 
2508.265142  	-0.038791 
2509.696800  	-0.039534 
2511.128458  	-0.039755 
2512.560116  	-0.039385 
2513.991774  	-0.039424 
2515.423433  	-0.039436 
2516.855091  	-0.039254 
2518.286749  	-0.039098 
2519.718407  	-0.038971 
2521.150065  	-0.039440 
2522.581724  	-0.039714 
2524.013382  	-0.039329 
2525.445040  	-0.039455 
2526.876698  	-0.039687 
2528.308356  	-0.039736 
2529.740014  	-0.039811 
2531.171673  	-0.039266 
2532.603331  	-0.039230 
2534.034989  	-0.039895 
2535.466647  	-0.039793 
2536.898305  	-0.039782 
2538.329964  	-0.039972 
2539.761622  	-0.039582 
2541.193280  	-0.039531 
2542.624938  	-0.039529 
2544.056596  	-0.039324 
2545.488254  	-0.039594 
2546.919913  	-0.039757 
2548.351571  	-0.039802 
2549.783229  	-0.039959 
2551.214887  	-0.039983 
2552.646545  	-0.040247 
2554.078204  	-0.040372 
2555.509862  	-0.040189 
2556.941520  	-0.040087 
2558.373178  	-0.039834 
2559.804836  	-0.039939 
2561.236495  	-0.040227 
2562.668153  	-0.040029 
2564.099811  	-0.040201 
2565.531469  	-0.040393 
2566.963127  	-0.040009 
2568.394785  	-0.039943 
2569.826444  	-0.040098 
2571.258102  	-0.040381 
2572.689760  	-0.040617 
2574.121418  	-0.039984 
2575.553076  	-0.039420 
2576.984735  	-0.039572 
2578.416393  	-0.039866 
2579.848051  	-0.040268 
2581.279709  	-0.040143 
2582.711367  	-0.039684 
2584.143026  	-0.039948 
2585.574684  	-0.040160 
2587.006342  	-0.039809 
2588.438000  	-0.039513 
2589.869658  	-0.039535 
2591.301316  	-0.039915 
2592.732975  	-0.040097 
2594.164633  	-0.040064 
2595.596291  	-0.040333 
2597.027949  	-0.040350 
2598.459607  	-0.040280 
2599.891266  	-0.040746 
2601.322924  	-0.040971 
2602.754582  	-0.040623 
2604.186240  	-0.040261 
2605.617898  	-0.040195 
2607.049556  	-0.040311 
2608.481215  	-0.040159 
2609.912873  	-0.039927 
2611.344531  	-0.040044 
2612.776189  	-0.040315 
2614.207847  	-0.040664 
2615.639506  	-0.040910 
2617.071164  	-0.040738 
2618.502822  	-0.040382 
2619.934480  	-0.040145 
2621.366138  	-0.040172 
2622.797797  	-0.040482 
2624.229455  	-0.040834 
2625.661113  	-0.040952 
2627.092771  	-0.040847 
2628.524429  	-0.040855 
2629.956087  	-0.040796 
2631.387746  	-0.040549 
2632.819404  	-0.040792 
2634.251062  	-0.041167 
2635.682720  	-0.041049 
2637.114378  	-0.041040 
2638.546037  	-0.040985 
2639.977695  	-0.040703 
2641.409353  	-0.040884 
2642.841011  	-0.041069 
2644.272669  	-0.040808 
2645.704328  	-0.040596 
2647.135986  	-0.040561 
2648.567644  	-0.040793 
2649.999302  	-0.041024 
2651.430960  	-0.040839 
2652.862618  	-0.040694 
2654.294277  	-0.040758 
2655.725935  	-0.040778 
2657.157593  	-0.040750 
2658.589251  	-0.040598 
2660.020909  	-0.040463 
2661.452568  	-0.040393 
2662.884226  	-0.040302 
2664.315884  	-0.040376 
2665.747542  	-0.040410 
2667.179200  	-0.040332 
2668.610858  	-0.040412 
2670.042517  	-0.040403 
2671.474175  	-0.040309 
2672.905833  	-0.040331 
2674.337491  	-0.040345 
2675.769149  	-0.040484 
2677.200808  	-0.040627 
2678.632466  	-0.040643 
2680.064124  	-0.040691 
2681.495782  	-0.040431 
2682.927440  	-0.040084 
2684.359099  	-0.040254 
2685.790757  	-0.040550 
2687.222415  	-0.040633 
2688.654073  	-0.040557 
2690.085731  	-0.040433 
2691.517389  	-0.040537 
2692.949048  	-0.040678 
2694.380706  	-0.040692 
2695.812364  	-0.040667 
2697.244022  	-0.040495 
2698.675680  	-0.040419 
2700.107339  	-0.040433 
2701.538997  	-0.040286 
2702.970655  	-0.040280 
2704.402313  	-0.040319 
2705.833971  	-0.040264 
2707.265630  	-0.040321 
2708.697288  	-0.040201 
2710.128946  	-0.039991 
2711.560604  	-0.039964 
2712.992262  	-0.039910 
2714.423920  	-0.039989 
2715.855579  	-0.040161 
2717.287237  	-0.040177 
2718.718895  	-0.040207 
2720.150553  	-0.040211 
2721.582211  	-0.040320 
2723.013870  	-0.040512 
2724.445528  	-0.040325 
2725.877186  	-0.040085 
2727.308844  	-0.040056 
2728.740502  	-0.040046 
2730.172160  	-0.040248 
2731.603819  	-0.040407 
2733.035477  	-0.040303 
2734.467135  	-0.040247 
2735.898793  	-0.040228 
2737.330451  	-0.040315 
2738.762110  	-0.040401 
2740.193768  	-0.040246 
2741.625426  	-0.040223 
2743.057084  	-0.040384 
2744.488742  	-0.040554 
2745.920401  	-0.040639 
2747.352059  	-0.040436 
2748.783717  	-0.040445 
2750.215375  	-0.040688 
2751.647033  	-0.040641 
2753.078691  	-0.040766 
2754.510350  	-0.040835 
2755.942008  	-0.040391 
2757.373666  	-0.040201 
2758.805324  	-0.040159 
2760.236982  	-0.039998 
2761.668641  	-0.040134 
2763.100299  	-0.040105 
2764.531957  	-0.039921 
2765.963615  	-0.040092 
2767.395273  	-0.040172 
2768.826931  	-0.040009 
2770.258590  	-0.039813 
2771.690248  	-0.039610 
2773.121906  	-0.039557 
2774.553564  	-0.039562 
2775.985222  	-0.039578 
2777.416881  	-0.039546 
2778.848539  	-0.039369 
2780.280197  	-0.039461 
2781.711855  	-0.039662 
2783.143513  	-0.039531 
2784.575172  	-0.039542 
2786.006830  	-0.039780 
2787.438488  	-0.039811 
2788.870146  	-0.039776 
2790.301804  	-0.039899 
2791.733462  	-0.039988 
2793.165121  	-0.039758 
2794.596779  	-0.039523 
2796.028437  	-0.039609 
2797.460095  	-0.039661 
2798.891753  	-0.039746 
2800.323412  	-0.039986 
2801.755070  	-0.040001 
2803.186728  	-0.039941 
2804.618386  	-0.039825 
2806.050044  	-0.039547 
2807.481703  	-0.039526 
2808.913361  	-0.039593 
2810.345019  	-0.039558 
2811.776677  	-0.039622 
2813.208335  	-0.039591 
2814.639993  	-0.039628 
2816.071652  	-0.039756 
2817.503310  	-0.039635 
2818.934968  	-0.039605 
2820.366626  	-0.039574 
2821.798284  	-0.039301 
2823.229943  	-0.039318 
2824.661601  	-0.039581 
2826.093259  	-0.039759 
2827.524917  	-0.039772 
2828.956575  	-0.039523 
2830.388233  	-0.039474 
2831.819892  	-0.039702 
2833.251550  	-0.039749 
2834.683208  	-0.039723 
2836.114866  	-0.039595 
2837.546524  	-0.039360 
2838.978183  	-0.039293 
2840.409841  	-0.039249 
2841.841499  	-0.039165 
2843.273157  	-0.038994 
2844.704815  	-0.038698 
2846.136474  	-0.038545 
2847.568132  	-0.038351 
2848.999790  	-0.038136 
2850.431448  	-0.038109 
2851.863106  	-0.037868 
2853.294764  	-0.037628 
2854.726423  	-0.037575 
2856.158081  	-0.037190 
2857.589739  	-0.036797 
2859.021397  	-0.036525 
2860.453055  	-0.035921 
2861.884714  	-0.035152 
2863.316372  	-0.034173 
2864.748030  	-0.033100 
2866.179688  	-0.032277 
2867.611346  	-0.031254 
2869.043005  	-0.030035 
2870.474663  	-0.029058 
2871.906321  	-0.028289 
2873.337979  	-0.028011 
2874.769637  	-0.028224 
2876.201295  	-0.028527 
2877.632954  	-0.029100 
2879.064612  	-0.029920 
2880.496270  	-0.030693 
2881.927928  	-0.031360 
2883.359586  	-0.031796 
2884.791245  	-0.032132 
2886.222903  	-0.032446 
2887.654561  	-0.032519 
2889.086219  	-0.032349 
2890.517877  	-0.032047 
2891.949535  	-0.031965 
2893.381194  	-0.032289 
2894.812852  	-0.032469 
2896.244510  	-0.032446 
2897.676168  	-0.032675 
2899.107826  	-0.032920 
2900.539485  	-0.032967 
2901.971143  	-0.033064 
2903.402801  	-0.033029 
2904.834459  	-0.032488 
2906.266117  	-0.031799 
2907.697776  	-0.031473 
2909.129434  	-0.031280 
2910.561092  	-0.031039 
2911.992750  	-0.030987 
2913.424408  	-0.030992 
2914.856066  	-0.030943 
2916.287725  	-0.031136 
2917.719383  	-0.031480 
2919.151041  	-0.031457 
2920.582699  	-0.030961 
2922.014357  	-0.030492 
2923.446016  	-0.030087 
2924.877674  	-0.029171 
2926.309332  	-0.027966 
2927.740990  	-0.027040 
2929.172648  	-0.026263 
2930.604306  	-0.025551 
2932.035965  	-0.025013 
2933.467623  	-0.024638 
2934.899281  	-0.024460 
2936.330939  	-0.024412 
2937.762597  	-0.024513 
2939.194256  	-0.024787 
2940.625914  	-0.025013 
2942.057572  	-0.025180 
2943.489230  	-0.025303 
2944.920888  	-0.025396 
2946.352547  	-0.025724 
2947.784205  	-0.025982 
2949.215863  	-0.025719 
2950.647521  	-0.025155 
2952.079179  	-0.024332 
2953.510837  	-0.023157 
2954.942496  	-0.021693 
2956.374154  	-0.019657 
2957.805812  	-0.016988 
2959.237470  	-0.014081 
2960.669128  	-0.011135 
2962.100787  	-0.008201 
2963.532445  	-0.005442 
2964.964103  	-0.003125 
2966.395761  	-0.001640 
2967.827419  	-0.001114 
2969.259078  	-0.001226 
2970.690736  	-0.001832 
2972.122394  	-0.003037 
2973.554052  	-0.004903 
2974.985710  	-0.007294 
2976.417368  	-0.009743 
2977.849027  	-0.012109 
2979.280685  	-0.014643 
2980.712343  	-0.017155 
2982.144001  	-0.019410 
2983.575659  	-0.021622 
2985.007318  	-0.023677 
2986.438976  	-0.025380 
2987.870634  	-0.027110 
2989.302292  	-0.028843 
2990.733950  	-0.030269 
2992.165608  	-0.031568 
2993.597267  	-0.032574 
2995.028925  	-0.033327 
2996.460583  	-0.034422 
2997.892241  	-0.035475 
2999.323899  	-0.036114 
3000.755558  	-0.036709 
3002.187216  	-0.037139 
3003.618874  	-0.037564 
3005.050532  	-0.038228 
3006.482190  	-0.038592 
3007.913849  	-0.038790 
3009.345507  	-0.039142 
3010.777165  	-0.039309 
3012.208823  	-0.039556 
3013.640481  	-0.040114 
3015.072139  	-0.040433 
3016.503798  	-0.040444 
3017.935456  	-0.040533 
3019.367114  	-0.040701 
3020.798772  	-0.040765 
3022.230430  	-0.040708 
3023.662089  	-0.040497 
3025.093747  	-0.040242 
3026.525405  	-0.040259 
3027.957063  	-0.040177 
3029.388721  	-0.039540 
3030.820380  	-0.038831 
3032.252038  	-0.038154 
3033.683696  	-0.037248 
3035.115354  	-0.036581 
3036.547012  	-0.036229 
3037.978670  	-0.035785 
3039.410329  	-0.035289 
3040.841987  	-0.034960 
3042.273645  	-0.034967 
3043.705303  	-0.035183 
3045.136961  	-0.035361 
3046.568620  	-0.035649 
3048.000278  	-0.036062 
3049.431936  	-0.036489 
3050.863594  	-0.036896 
3052.295252  	-0.036824 
3053.726910  	-0.036253 
3055.158569  	-0.035947 
3056.590227  	-0.036029 
3058.021885  	-0.036095 
3059.453543  	-0.036143 
3060.885201  	-0.036169 
3062.316860  	-0.036045 
3063.748518  	-0.036111 
3065.180176  	-0.036541 
3066.611834  	-0.036785 
3068.043492  	-0.036860 
3069.475151  	-0.037325 
3070.906809  	-0.037871 
3072.338467  	-0.038141 
3073.770125  	-0.038411 
3075.201783  	-0.038687 
3076.633441  	-0.038863 
3078.065100  	-0.039059 
3079.496758  	-0.039367 
3080.928416  	-0.039603 
3082.360074  	-0.039512 
3083.791732  	-0.039576 
3085.223391  	-0.040061 
3086.655049  	-0.040411 
3088.086707  	-0.040699 
3089.518365  	-0.040938 
3090.950023  	-0.040831 
3092.381682  	-0.041081 
3093.813340  	-0.041597 
3095.244998  	-0.041474 
3096.676656  	-0.041219 
3098.108314  	-0.041273 
3099.539972  	-0.041307 
3100.971631  	-0.041353 
3102.403289  	-0.041304 
3103.834947  	-0.041285 
3105.266605  	-0.041588 
3106.698263  	-0.041790 
3108.129922  	-0.041628 
3109.561580  	-0.041398 
3110.993238  	-0.041400 
3112.424896  	-0.041618 
3113.856554  	-0.041696 
3115.288212  	-0.041628 
3116.719871  	-0.041664 
3118.151529  	-0.041858 
3119.583187  	-0.042113 
3121.014845  	-0.042100 
3122.446503  	-0.041943 
3123.878162  	-0.041982 
3125.309820  	-0.042028 
3126.741478  	-0.042241 
3128.173136  	-0.042482 
3129.604794  	-0.042207 
3131.036453  	-0.042206 
3132.468111  	-0.042832 
3133.899769  	-0.043086 
3135.331427  	-0.042939 
3136.763085  	-0.042826 
3138.194743  	-0.042740 
3139.626402  	-0.042880 
3141.058060  	-0.043108 
3142.489718  	-0.043084 
3143.921376  	-0.043003 
3145.353034  	-0.043214 
3146.784693  	-0.043439 
3148.216351  	-0.043215 
3149.648009  	-0.043024 
3151.079667  	-0.043103 
3152.511325  	-0.042981 
3153.942983  	-0.043063 
3155.374642  	-0.043336 
3156.806300  	-0.043168 
3158.237958  	-0.043139 
3159.669616  	-0.043410 
3161.101274  	-0.043526 
3162.532933  	-0.043656 
3163.964591  	-0.043565 
3165.396249  	-0.043365 
3166.827907  	-0.043460 
3168.259565  	-0.043372 
3169.691224  	-0.043243 
3171.122882  	-0.043347 
3172.554540  	-0.043308 
3173.986198  	-0.043450 
3175.417856  	-0.043751 
3176.849514  	-0.043805 
3178.281173  	-0.043860 
3179.712831  	-0.043681 
3181.144489  	-0.043285 
3182.576147  	-0.043339 
3184.007805  	-0.043587 
3185.439464  	-0.043567 
3186.871122  	-0.043384 
3188.302780  	-0.043270 
3189.734438  	-0.043391 
3191.166096  	-0.043500 
3192.597755  	-0.043374 
3194.029413  	-0.043150 
3195.461071  	-0.043032 
3196.892729  	-0.043270 
3198.324387  	-0.043561 
3199.756045  	-0.043539 
3201.187704  	-0.043606 
3202.619362  	-0.043797 
3204.051020  	-0.043782 
3205.482678  	-0.043652 
3206.914336  	-0.043506 
3208.345995  	-0.043456 
3209.777653  	-0.043579 
3211.209311  	-0.043736 
3212.640969  	-0.043769 
3214.072627  	-0.043672 
3215.504285  	-0.043813 
3216.935944  	-0.044117 
3218.367602  	-0.043985 
3219.799260  	-0.043749 
3221.230918  	-0.043822 
3222.662576  	-0.043839 
3224.094235  	-0.043797 
3225.525893  	-0.043807 
3226.957551  	-0.043833 
3228.389209  	-0.043972 
3229.820867  	-0.044038 
3231.252526  	-0.043982 
3232.684184  	-0.043910 
3234.115842  	-0.043773 
3235.547500  	-0.043797 
3236.979158  	-0.043944 
3238.410816  	-0.043849 
3239.842475  	-0.043684 
3241.274133  	-0.043730 
3242.705791  	-0.043818 
3244.137449  	-0.043721 
3245.569107  	-0.043631 
3247.000766  	-0.043757 
3248.432424  	-0.043847 
3249.864082  	-0.043947 
3251.295740  	-0.044120 
3252.727398  	-0.044041 
3254.159057  	-0.043974 
3255.590715  	-0.044011 
3257.022373  	-0.043793 
3258.454031  	-0.043815 
3259.885689  	-0.044167 
3261.317347  	-0.044123 
3262.749006  	-0.043721 
3264.180664  	-0.043408 
3265.612322  	-0.043541 
3267.043980  	-0.044080 
3268.475638  	-0.044333 
3269.907297  	-0.044118 
3271.338955  	-0.043880 
3272.770613  	-0.043992 
3274.202271  	-0.044355 
3275.633929  	-0.044282 
3277.065587  	-0.043897 
3278.497246  	-0.043899 
3279.928904  	-0.044114 
3281.360562  	-0.044335 
3282.792220  	-0.044410 
3284.223878  	-0.044157 
3285.655537  	-0.044027 
3287.087195  	-0.043986 
3288.518853  	-0.043834 
3289.950511  	-0.043963 
3291.382169  	-0.044116 
3292.813828  	-0.044172 
3294.245486  	-0.044405 
3295.677144  	-0.044308 
3297.108802  	-0.043978 
3298.540460  	-0.044001 
3299.972118  	-0.044003 
3301.403777  	-0.043877 
3302.835435  	-0.043999 
3304.267093  	-0.044182 
3305.698751  	-0.044182 
3307.130409  	-0.044178 
3308.562068  	-0.044363 
3309.993726  	-0.044538 
3311.425384  	-0.044506 
3312.857042  	-0.044429 
3314.288700  	-0.044357 
3315.720359  	-0.044305 
3317.152017  	-0.044365 
3318.583675  	-0.044443 
3320.015333  	-0.044359 
3321.446991  	-0.044055 
3322.878649  	-0.043995 
3324.310308  	-0.044442 
3325.741966  	-0.044603 
3327.173624  	-0.044277 
3328.605282  	-0.044250 
3330.036940  	-0.044501 
3331.468599  	-0.044510 
3332.900257  	-0.044225 
3334.331915  	-0.044005 
3335.763573  	-0.044098 
3337.195231  	-0.044134 
3338.626889  	-0.044040 
3340.058548  	-0.044221 
3341.490206  	-0.044504 
3342.921864  	-0.044579 
3344.353522  	-0.044457 
3345.785180  	-0.044393 
3347.216839  	-0.044656 
3348.648497  	-0.044698 
3350.080155  	-0.044189 
3351.511813  	-0.043993 
3352.943471  	-0.044453 
3354.375130  	-0.044827 
3355.806788  	-0.044605 
3357.238446  	-0.044189 
3358.670104  	-0.044178 
3360.101762  	-0.044419 
3361.533420  	-0.044565 
3362.965079  	-0.044497 
3364.396737  	-0.044418 
3365.828395  	-0.044833 
3367.260053  	-0.045127 
3368.691711  	-0.044640 
3370.123370  	-0.044342 
3371.555028  	-0.044483 
3372.986686  	-0.044547 
3374.418344  	-0.044701 
3375.850002  	-0.044645 
3377.281660  	-0.044407 
3378.713319  	-0.044430 
3380.144977  	-0.044346 
3381.576635  	-0.044315 
3383.008293  	-0.044469 
3384.439951  	-0.044453 
3385.871610  	-0.044756 
3387.303268  	-0.045134 
3388.734926  	-0.044896 
3390.166584  	-0.044570 
3391.598242  	-0.044374 
3393.029901  	-0.044264 
3394.461559  	-0.044347 
3395.893217  	-0.044306 
3397.324875  	-0.044392 
3398.756533  	-0.044665 
3400.188191  	-0.044566 
3401.619850  	-0.044380 
3403.051508  	-0.044344 
3404.483166  	-0.044216 
3405.914824  	-0.044154 
3407.346482  	-0.044327 
3408.778141  	-0.044621 
3410.209799  	-0.044759 
3411.641457  	-0.044795 
3413.073115  	-0.044915 
3414.504773  	-0.044800 
3415.936432  	-0.044629 
3417.368090  	-0.044662 
3418.799748  	-0.044583 
3420.231406  	-0.044685 
3421.663064  	-0.044978 
3423.094722  	-0.044895 
3424.526381  	-0.044655 
3425.958039  	-0.044481 
3427.389697  	-0.044565 
3428.821355  	-0.044801 
3430.253013  	-0.044598 
3431.684672  	-0.044482 
3433.116330  	-0.044636 
3434.547988  	-0.044438 
3435.979646  	-0.044354 
3437.411304  	-0.044291 
3438.842962  	-0.044078 
3440.274621  	-0.044342 
3441.706279  	-0.044439 
3443.137937  	-0.044333 
3444.569595  	-0.044627 
3446.001253  	-0.044568 
3447.432912  	-0.044562 
3448.864570  	-0.045005 
3450.296228  	-0.044952 
3451.727886  	-0.044853 
3453.159544  	-0.044744 
3454.591203  	-0.044325 
3456.022861  	-0.044426 
3457.454519  	-0.044505 
3458.886177  	-0.044180 
3460.317835  	-0.044368 
3461.749493  	-0.044622 
3463.181152  	-0.044617 
3464.612810  	-0.044706 
3466.044468  	-0.044615 
3467.476126  	-0.044510 
3468.907784  	-0.044469 
3470.339443  	-0.044310 
3471.771101  	-0.044228 
3473.202759  	-0.044038 
3474.634417  	-0.043913 
3476.066075  	-0.044167 
3477.497734  	-0.044274 
3478.929392  	-0.043999 
3480.361050  	-0.043564 
3481.792708  	-0.043450 
3483.224366  	-0.043897 
3484.656024  	-0.044083 
3486.087683  	-0.043986 
3487.519341  	-0.044191 
3488.950999  	-0.044269 
3490.382657  	-0.044199 
3491.814315  	-0.044388 
3493.245974  	-0.044578 
3494.677632  	-0.044661 
3496.109290  	-0.044639 
3497.540948  	-0.044335 
3498.972606  	-0.043902 
3500.404264  	-0.043740 
3501.835923  	-0.043938 
3503.267581  	-0.044056 
3504.699239  	-0.043940 
3506.130897  	-0.043872 
3507.562555  	-0.043911 
3508.994214  	-0.044130 
3510.425872  	-0.044117 
3511.857530  	-0.043697 
3513.289188  	-0.043730 
3514.720846  	-0.043982 
3516.152505  	-0.043781 
3517.584163  	-0.043623 
3519.015821  	-0.043550 
3520.447479  	-0.043315 
3521.879137  	-0.043314 
3523.310795  	-0.043631 
3524.742454  	-0.043754 
3526.174112  	-0.043232 
3527.605770  	-0.042825 
3529.037428  	-0.043285 
3530.469086  	-0.043643 
3531.900745  	-0.043658 
3533.332403  	-0.043700 
3534.764061  	-0.043397 
3536.195719  	-0.043383 
3537.627377  	-0.043661 
3539.059035  	-0.043343 
3540.490694  	-0.043545 
3541.922352  	-0.044233 
3543.354010  	-0.043929 
3544.785668  	-0.043448 
3546.217326  	-0.043728 
3547.648985  	-0.044076 
3549.080643  	-0.044233 
3550.512301  	-0.044211 
3551.943959  	-0.044072 
3553.375617  	-0.044059 
3554.807276  	-0.044302 
3556.238934  	-0.044506 
3557.670592  	-0.044171 
3559.102250  	-0.043974 
3560.533908  	-0.044550 
3561.965566  	-0.044820 
3563.397225  	-0.044300 
3564.828883  	-0.043488 
3566.260541  	-0.043024 
3567.692199  	-0.044112 
3569.123857  	-0.045318 
3570.555516  	-0.045172 
3571.987174  	-0.044911 
3573.418832  	-0.044645 
3574.850490  	-0.044294 
3576.282148  	-0.044221 
3577.713807  	-0.044389 
3579.145465  	-0.044986 
3580.577123  	-0.045460 
3582.008781  	-0.045063 
3583.440439  	-0.044575 
3584.872097  	-0.044190 
3586.303756  	-0.043724 
3587.735414  	-0.044378 
3589.167072  	-0.045813 
3590.598730  	-0.045811 
3592.030388  	-0.044939 
3593.462047  	-0.044073 
3594.893705  	-0.043819 
3596.325363  	-0.044280 
3597.757021  	-0.044702 
3599.188679  	-0.044793 
3600.620337  	-0.045135 
3602.051996  	-0.045589 
3603.483654  	-0.045445 
3604.915312  	-0.045316 
3606.346970  	-0.045164 
3607.778628  	-0.044508 
3609.210287  	-0.045146 
3610.641945  	-0.046170 
3612.073603  	-0.045073 
3613.505261  	-0.044464 
3614.936919  	-0.045708 
3616.368578  	-0.045437 
3617.800236  	-0.044294 
3619.231894  	-0.044704 
3620.663552  	-0.046117 
3622.095210  	-0.046419 
3623.526868  	-0.045899 
3624.958527  	-0.045403 
3626.390185  	-0.044441 
3627.821843  	-0.042820 
3629.253501  	-0.043562 
3630.685159  	-0.046290 
3632.116818  	-0.045607 
3633.548476  	-0.045021 
3634.980134  	-0.045629 
3636.411792  	-0.045669 
3637.843450  	-0.045576 
3639.275109  	-0.045798 
3640.706767  	-0.045604 
3642.138425  	-0.045547 
3643.570083  	-0.045813 
3645.001741  	-0.045458 
3646.433399  	-0.044719 
3647.865058  	-0.044168 
3649.296716  	-0.043428 
3650.728374  	-0.044164 
3652.160032  	-0.046600 
3653.591690  	-0.046176 
3655.023349  	-0.044529 
3656.455007  	-0.044886 
3657.886665  	-0.045924 
3659.318323  	-0.045200 
3660.749981  	-0.045082 
3662.181639  	-0.045626 
3663.613298  	-0.045631 
3665.044956  	-0.045548 
3666.476614  	-0.045351 
3667.908272  	-0.044532 
3669.339930  	-0.043607 
3670.771589  	-0.044543 
3672.203247  	-0.045486 
3673.634905  	-0.044054 
3675.066563  	-0.043434 
3676.498221  	-0.046822 
3677.929880  	-0.046823 
3679.361538  	-0.046008 
3680.793196  	-0.046387 
3682.224854  	-0.045967 
3683.656512  	-0.045664 
3685.088170  	-0.045580 
3686.519829  	-0.044435 
3687.951487  	-0.044179 
3689.383145  	-0.045521 
3690.814803  	-0.045387 
3692.246461  	-0.045824 
3693.678120  	-0.046566 
3695.109778  	-0.045751 
3696.541436  	-0.045227 
3697.973094  	-0.045559 
3699.404752  	-0.044975 
3700.836411  	-0.044489 
3702.268069  	-0.045802 
3703.699727  	-0.046726 
3705.131385  	-0.046195 
3706.563043  	-0.045710 
3707.994701  	-0.045212 
3709.426360  	-0.044325 
3710.858018  	-0.043936 
3712.289676  	-0.044985 
3713.721334  	-0.046789 
3715.152992  	-0.047184 
3716.584651  	-0.046165 
3718.016309  	-0.045482 
3719.447967  	-0.045674 
3720.879625  	-0.045464 
3722.311283  	-0.045146 
3723.742941  	-0.045266 
3725.174600  	-0.045084 
3726.606258  	-0.045256 
3728.037916  	-0.046001 
3729.469574  	-0.045590 
3730.901232  	-0.044749 
3732.332891  	-0.044929 
3733.764549  	-0.044508 
3735.196207  	-0.043239 
3736.627865  	-0.045411 
3738.059523  	-0.047288 
3739.491182  	-0.046566 
3740.922840  	-0.046729 
3742.354498  	-0.046268 
3743.786156  	-0.044601 
3745.217814  	-0.046660 
3746.649472  	-0.047308 
3748.081131  	-0.044875 
3749.512789  	-0.044547 
3750.944447  	-0.045847 
3752.376105  	-0.045915 
3753.807763  	-0.046973 
3755.239422  	-0.046960 
3756.671080  	-0.046543 
3758.102738  	-0.046999 
3759.534396  	-0.046954 
3760.966054  	-0.047305 
3762.397712  	-0.047637 
3763.829371  	-0.046517 
3765.261029  	-0.046117 
3766.692687  	-0.046943 
3768.124345  	-0.046403 
3769.556003  	-0.045914 
3770.987662  	-0.046866 
3772.419320  	-0.047312 
3773.850978  	-0.047038 
3775.282636  	-0.046956 
3776.714294  	-0.047030 
3778.145953  	-0.046703 
3779.577611  	-0.046505 
3781.009269  	-0.047056 
3782.440927  	-0.046869 
3783.872585  	-0.046110 
3785.304243  	-0.046138 
3786.735902  	-0.046712 
3788.167560  	-0.046944 
3789.599218  	-0.046711 
3791.030876  	-0.046482 
3792.462534  	-0.046998 
3793.894193  	-0.047241 
3795.325851  	-0.046478 
3796.757509  	-0.046128 
3798.189167  	-0.046260 
3799.620825  	-0.045330 
3801.052484  	-0.044579 
3802.484142  	-0.046611 
3803.915800  	-0.047535 
3805.347458  	-0.046196 
3806.779116  	-0.045902 
3808.210774  	-0.047684 
3809.642433  	-0.047485 
3811.074091  	-0.046647 
3812.505749  	-0.046757 
3813.937407  	-0.046285 
3815.369065  	-0.045509 
3816.800724  	-0.046774 
3818.232382  	-0.046762 
3819.664040  	-0.044809 
3821.095698  	-0.044972 
3822.527356  	-0.048063 
3823.959014  	-0.047567 
3825.390673  	-0.046560 
3826.822331  	-0.047066 
3828.253989  	-0.047198 
3829.685647  	-0.046316 
3831.117305  	-0.045855 
3832.548964  	-0.046102 
3833.980622  	-0.046383 
3835.412280  	-0.046160 
3836.843938  	-0.045736 
3838.275596  	-0.045823 
3839.707255  	-0.045981 
3841.138913  	-0.045885 
3842.570571  	-0.046107 
3844.002229  	-0.046862 
3845.433887  	-0.047576 
3846.865545  	-0.047138 
3848.297204  	-0.046307 
3849.728862  	-0.046068 
3851.160520  	-0.045151 
3852.592178  	-0.043399 
3854.023836  	-0.044682 
3855.455495  	-0.047072 
3856.887153  	-0.047275 
3858.318811  	-0.047457 
3859.750469  	-0.046873 
3861.182127  	-0.046414 
3862.613786  	-0.046342 
3864.045444  	-0.045464 
3865.477102  	-0.046189 
3866.908760  	-0.047325 
3868.340418  	-0.045668 
3869.772076  	-0.044911 
3871.203735  	-0.047168 
3872.635393  	-0.046543 
3874.067051  	-0.045871 
3875.498709  	-0.047346 
3876.930367  	-0.047324 
3878.362026  	-0.046149 
3879.793684  	-0.045744 
3881.225342  	-0.046618 
3882.657000  	-0.046830 
3884.088658  	-0.045391 
3885.520316  	-0.044672 
3886.951975  	-0.046958 
3888.383633  	-0.047418 
3889.815291  	-0.046087 
3891.246949  	-0.046125 
3892.678607  	-0.047437 
3894.110266  	-0.047259 
3895.541924  	-0.046476 
3896.973582  	-0.045895 
3898.405240  	-0.045563 
3899.836898  	-0.045749 
3901.268557  	-0.045781 
3902.700215  	-0.045424 
3904.131873  	-0.045952 
3905.563531  	-0.046921 
3906.995189  	-0.047006 
3908.426847  	-0.047002 
3909.858506  	-0.047173 
3911.290164  	-0.047268 
3912.721822  	-0.047322 
3914.153480  	-0.046836 
3915.585138  	-0.045997 
3917.016797  	-0.045875 
3918.448455  	-0.046364 
3919.880113  	-0.046622 
3921.311771  	-0.046558 
3922.743429  	-0.046125 
3924.175088  	-0.046115 
3925.606746  	-0.046795 
3927.038404  	-0.046819 
3928.470062  	-0.046580 
3929.901720  	-0.046730 
3931.333378  	-0.046489 
3932.765037  	-0.046307 
3934.196695  	-0.046803 
3935.628353  	-0.046926 
3937.060011  	-0.046859 
3938.491669  	-0.046985 
3939.923328  	-0.046585 
3941.354986  	-0.045989 
3942.786644  	-0.046181 
3944.218302  	-0.046780 
3945.649960  	-0.046754 
3947.081618  	-0.046430 
3948.513277  	-0.046605 
3949.944935  	-0.047085 
3951.376593  	-0.047105 
3952.808251  	-0.046880 
3954.239909  	-0.046807 
3955.671568  	-0.046870 
3957.103226  	-0.047102 
3958.534884  	-0.047289 
3959.966542  	-0.047120 
3961.398200  	-0.046847 
3962.829859  	-0.046901 
3964.261517  	-0.047123 
3965.693175  	-0.047089 
3967.124833  	-0.046904 
3968.556491  	-0.046678 
3969.988149  	-0.046372 
3971.419808  	-0.046544 
3972.851466  	-0.047091 
3974.283124  	-0.046932 
3975.714782  	-0.046405 
3977.146440  	-0.046441 
3978.578099  	-0.046706 
3980.009757  	-0.047012 
3981.441415  	-0.047206 
3982.873073  	-0.046744 
3984.304731  	-0.046259 
3985.736389  	-0.046484 
3987.168048  	-0.046722 
3988.599706  	-0.046465 
3990.031364  	-0.046246 
3991.463022  	-0.046488 
3992.894680  	-0.046900 
3994.326339  	-0.047096 
3995.757997  	-0.047121 
3997.189655  	-0.047081 
3998.621313  	-0.046928 
4000.052971  	-0.046772 