##TITLE=No Description
##DATA TYPE=INFRARED SPECTRUM
##XUNITS=1/CM
##YUNITS=Abs
399.432634  	0.064620 
400.864292  	0.089039 
402.295950  	0.091477 
403.727608  	0.100296 
405.159267  	0.130993 
406.590925  	0.117729 
408.022583  	0.086093 
409.454241  	0.088707 
410.885899  	0.089936 
412.317558  	0.067099 
413.749216  	0.042435 
415.180874  	0.045903 
416.612532  	0.067445 
418.044190  	0.068139 
419.475848  	0.040539 
420.907507  	0.038768 
422.339165  	0.047425 
423.770823  	0.059896 
425.202481  	0.061295 
426.634139  	0.041280 
428.065798  	0.022471 
429.497456  	0.023896 
430.929114  	0.036847 
432.360772  	0.045916 
433.792430  	0.045590 
435.224089  	0.038934 
436.655747  	0.030024 
438.087405  	0.029980 
439.519063  	0.034377 
440.950721  	0.034811 
442.382379  	0.040464 
443.814038  	0.049605 
445.245696  	0.043296 
446.677354  	0.030865 
448.109012  	0.030372 
449.540670  	0.036626 
450.972329  	0.038571 
452.403987  	0.036501 
453.835645  	0.037975 
455.267303  	0.042578 
456.698961  	0.041484 
458.130619  	0.036429 
459.562278  	0.037623 
460.993936  	0.039546 
462.425594  	0.038815 
463.857252  	0.039877 
465.288910  	0.044865 
466.720569  	0.050270 
468.152227  	0.052650 
469.583885  	0.054807 
471.015543  	0.057954 
472.447201  	0.057534 
473.878860  	0.055066 
475.310518  	0.054330 
476.742176  	0.053562 
478.173834  	0.053682 
479.605492  	0.057379 
481.037150  	0.061327 
482.468809  	0.061883 
483.900467  	0.065792 
485.332125  	0.077543 
486.763783  	0.085578 
488.195441  	0.084091 
489.627100  	0.080625 
491.058758  	0.081573 
492.490416  	0.084426 
493.922074  	0.083793 
495.353732  	0.081842 
496.785391  	0.080700 
498.217049  	0.077183 
499.648707  	0.074409 
501.080365  	0.076543 
502.512023  	0.078211 
503.943681  	0.075478 
505.375340  	0.074328 
506.806998  	0.076641 
508.238656  	0.077249 
509.670314  	0.074740 
511.101972  	0.074203 
512.533631  	0.075915 
513.965289  	0.075024 
515.396947  	0.072538 
516.828605  	0.073053 
518.260263  	0.076379 
519.691921  	0.080180 
521.123580  	0.085647 
522.555238  	0.092851 
523.986896  	0.098309 
525.418554  	0.101968 
526.850212  	0.107244 
528.281871  	0.113012 
529.713529  	0.118871 
531.145187  	0.127554 
532.576845  	0.137050 
534.008503  	0.145124 
535.440162  	0.153940 
536.871820  	0.166029 
538.303478  	0.181856 
539.735136  	0.196893 
541.166794  	0.209027 
542.598452  	0.224347 
544.030111  	0.243092 
545.461769  	0.261856 
546.893427  	0.282631 
548.325085  	0.303938 
549.756743  	0.323383 
551.188402  	0.339177 
552.620060  	0.347295 
554.051718  	0.349346 
555.483376  	0.345121 
556.915034  	0.331650 
558.346692  	0.312316 
559.778351  	0.291410 
561.210009  	0.271706 
562.641667  	0.250739 
564.073325  	0.222843 
565.504983  	0.188190 
566.936642  	0.148180 
568.368300  	0.107849 
569.799958  	0.077807 
571.231616  	0.063377 
572.663274  	0.062622 
574.094933  	0.068319 
575.526591  	0.073736 
576.958249  	0.074964 
578.389907  	0.071443 
579.821565  	0.065791 
581.253223  	0.060623 
582.684882  	0.056843 
584.116540  	0.054135 
585.548198  	0.051484 
586.979856  	0.047973 
588.411514  	0.044706 
589.843173  	0.042013 
591.274831  	0.038819 
592.706489  	0.036442 
594.138147  	0.035363 
595.569805  	0.033088 
597.001464  	0.030036 
598.433122  	0.028636 
599.864780  	0.028530 
601.296438  	0.028004 
602.728096  	0.026188 
604.159754  	0.024254 
605.591413  	0.024119 
607.023071  	0.024815 
608.454729  	0.024457 
609.886387  	0.023479 
611.318045  	0.022857 
612.749704  	0.022825 
614.181362  	0.022820 
615.613020  	0.022118 
617.044678  	0.020964 
618.476336  	0.020256 
619.907994  	0.021025 
621.339653  	0.023078 
622.771311  	0.024859 
624.202969  	0.026815 
625.634627  	0.029312 
627.066285  	0.030587 
628.497944  	0.031788 
629.929602  	0.035142 
631.361260  	0.038936 
632.792918  	0.040271 
634.224576  	0.038997 
635.656235  	0.037115 
637.087893  	0.035374 
638.519551  	0.032656 
639.951209  	0.029192 
641.382867  	0.026894 
642.814525  	0.026284 
644.246184  	0.026733 
645.677842  	0.027079 
647.109500  	0.026848 
648.541158  	0.027496 
649.972816  	0.028952 
651.404475  	0.029979 
652.836133  	0.031121 
654.267791  	0.031827 
655.699449  	0.030828 
657.131107  	0.029967 
658.562766  	0.030987 
659.994424  	0.032258 
661.426082  	0.032489 
662.857740  	0.032648 
664.289398  	0.033096 
665.721056  	0.033826 
667.152715  	0.035503 
668.584373  	0.036616 
670.016031  	0.036115 
671.447689  	0.037107 
672.879347  	0.038849 
674.311006  	0.040404 
675.742664  	0.042138 
677.174322  	0.043590 
678.605980  	0.045032 
680.037638  	0.047139 
681.469296  	0.049641 
682.900955  	0.054286 
684.332613  	0.060970 
685.764271  	0.066230 
687.195929  	0.069552 
688.627587  	0.070441 
690.059246  	0.068633 
691.490904  	0.067191 
692.922562  	0.066964 
694.354220  	0.068625 
695.785878  	0.072934 
697.217537  	0.077654 
698.649195  	0.082808 
700.080853  	0.090190 
701.512511  	0.098681 
702.944169  	0.107112 
704.375827  	0.114024 
705.807486  	0.117682 
707.239144  	0.117931 
708.670802  	0.115144 
710.102460  	0.111156 
711.534118  	0.106353 
712.965777  	0.100643 
714.397435  	0.095730 
715.829093  	0.091233 
717.260751  	0.086740 
718.692409  	0.083562 
720.124067  	0.082544 
721.555726  	0.084867 
722.987384  	0.089642 
724.419042  	0.093833 
725.850700  	0.096904 
727.282358  	0.099446 
728.714017  	0.101176 
730.145675  	0.102386 
731.577333  	0.103055 
733.008991  	0.102403 
734.440649  	0.099529 
735.872308  	0.096027 
737.303966  	0.095400 
738.735624  	0.097070 
740.167282  	0.099159 
741.598940  	0.102799 
743.030598  	0.107780 
744.462257  	0.113436 
745.893915  	0.120420 
747.325573  	0.128345 
748.757231  	0.137839 
750.188889  	0.148829 
751.620548  	0.159310 
753.052206  	0.169605 
754.483864  	0.180068 
755.915522  	0.190140 
757.347180  	0.198969 
758.778839  	0.204620 
760.210497  	0.208395 
761.642155  	0.211813 
763.073813  	0.214345 
764.505471  	0.217836 
765.937129  	0.222140 
767.368788  	0.224236 
768.800446  	0.222076 
770.232104  	0.213865 
771.663762  	0.200558 
773.095420  	0.184316 
774.527079  	0.166735 
775.958737  	0.150262 
777.390395  	0.135780 
778.822053  	0.123469 
780.253711  	0.113985 
781.685369  	0.106560 
783.117028  	0.100267 
784.548686  	0.095249 
785.980344  	0.091744 
787.412002  	0.089814 
788.843660  	0.088564 
790.275319  	0.087002 
791.706977  	0.085776 
793.138635  	0.086072 
794.570293  	0.088767 
796.001951  	0.093492 
797.433610  	0.099272 
798.865268  	0.107838 
800.296926  	0.120948 
801.728584  	0.137588 
803.160242  	0.157439 
804.591900  	0.179846 
806.023559  	0.203287 
807.455217  	0.227501 
808.886875  	0.251572 
810.318533  	0.274904 
811.750191  	0.294904 
813.181850  	0.307848 
814.613508  	0.314289 
816.045166  	0.313899 
817.476824  	0.309016 
818.908482  	0.305937 
820.340141  	0.307809 
821.771799  	0.317876 
823.203457  	0.336671 
824.635115  	0.360044 
826.066773  	0.384890 
827.498431  	0.402735 
828.930090  	0.405988 
830.361748  	0.396369 
831.793406  	0.374166 
833.225064  	0.344247 
834.656722  	0.313088 
836.088381  	0.281989 
837.520039  	0.253903 
838.951697  	0.230653 
840.383355  	0.211597 
841.815013  	0.196707 
843.246671  	0.184366 
844.678330  	0.172302 
846.109988  	0.159588 
847.541646  	0.145604 
848.973304  	0.130077 
850.404962  	0.113265 
851.836621  	0.096692 
853.268279  	0.081835 
854.699937  	0.068403 
856.131595  	0.056375 
857.563253  	0.046890 
858.994912  	0.040357 
860.426570  	0.035804 
861.858228  	0.032512 
863.289886  	0.030853 
864.721544  	0.031063 
866.153202  	0.032474 
867.584861  	0.034999 
869.016519  	0.039327 
870.448177  	0.044900 
871.879835  	0.051250 
873.311493  	0.059105 
874.743152  	0.068212 
876.174810  	0.078377 
877.606468  	0.090166 
879.038126  	0.103368 
880.469784  	0.117513 
881.901443  	0.131974 
883.333101  	0.146279 
884.764759  	0.158842 
886.196417  	0.166617 
887.628075  	0.168235 
889.059733  	0.161412 
890.491392  	0.144185 
891.923050  	0.119439 
893.354708  	0.092054 
894.786366  	0.067358 
896.218024  	0.049096 
897.649683  	0.037272 
899.081341  	0.030085 
900.512999  	0.026292 
901.944657  	0.024635 
903.376315  	0.024050 
904.807973  	0.024416 
906.239632  	0.025701 
907.671290  	0.027508 
909.102948  	0.029341 
910.534606  	0.031328 
911.966264  	0.034122 
913.397923  	0.037915 
914.829581  	0.042174 
916.261239  	0.045782 
917.692897  	0.048273 
919.124555  	0.049700 
920.556214  	0.049087 
921.987872  	0.046425 
923.419530  	0.043077 
924.851188  	0.039976 
926.282846  	0.038401 
927.714504  	0.039150 
929.146163  	0.041568 
930.577821  	0.045265 
932.009479  	0.049700 
933.441137  	0.053856 
934.872795  	0.056979 
936.304454  	0.058339 
937.736112  	0.058780 
939.167770  	0.059895 
940.599428  	0.061538 
942.031086  	0.062917 
943.462744  	0.063607 
944.894403  	0.063425 
946.326061  	0.062127 
947.757719  	0.059738 
949.189377  	0.057801 
950.621035  	0.057362 
952.052694  	0.057898 
953.484352  	0.059698 
954.916010  	0.062969 
956.347668  	0.066836 
957.779326  	0.070538 
959.210985  	0.072947 
960.642643  	0.073883 
962.074301  	0.074222 
963.505959  	0.073898 
964.937617  	0.073182 
966.369275  	0.072851 
967.800934  	0.073120 
969.232592  	0.073908 
970.664250  	0.074859 
972.095908  	0.076437 
973.527566  	0.079067 
974.959225  	0.081835 
976.390883  	0.084846 
977.822541  	0.088525 
979.254199  	0.092551 
980.685857  	0.097524 
982.117516  	0.103463 
983.549174  	0.110175 
984.980832  	0.118461 
986.412490  	0.128472 
987.844148  	0.140648 
989.275806  	0.154662 
990.707465  	0.168873 
992.139123  	0.182605 
993.570781  	0.193638 
995.002439  	0.201324 
996.434097  	0.209173 
997.865756  	0.220466 
999.297414  	0.240781 
1000.729072  	0.274763 
1002.160730  	0.319424 
1003.592388  	0.367001 
1005.024046  	0.403818 
1006.455705  	0.422279 
1007.887363  	0.431743 
1009.319021  	0.445743 
1010.750679  	0.487707 
1012.182337  	0.572144 
1013.613996  	0.643591 
1015.045654  	0.598006 
1016.477312  	0.458794 
1017.908970  	0.324065 
1019.340628  	0.226720 
1020.772287  	0.161651 
1022.203945  	0.118389 
1023.635603  	0.087241 
1025.067261  	0.064431 
1026.498919  	0.049926 
1027.930577  	0.042168 
1029.362236  	0.038923 
1030.793894  	0.038733 
1032.225552  	0.040112 
1033.657210  	0.042290 
1035.088868  	0.045384 
1036.520527  	0.048368 
1037.952185  	0.050808 
1039.383843  	0.053717 
1040.815501  	0.057017 
1042.247159  	0.060422 
1043.678818  	0.064054 
1045.110476  	0.067648 
1046.542134  	0.071164 
1047.973792  	0.074587 
1049.405450  	0.078226 
1050.837108  	0.081990 
1052.268767  	0.085405 
1053.700425  	0.089376 
1055.132083  	0.093752 
1056.563741  	0.097815 
1057.995399  	0.102741 
1059.427058  	0.108271 
1060.858716  	0.113849 
1062.290374  	0.120331 
1063.722032  	0.127386 
1065.153690  	0.135352 
1066.585348  	0.145058 
1068.017007  	0.156897 
1069.448665  	0.171965 
1070.880323  	0.190417 
1072.311981  	0.214356 
1073.743639  	0.247647 
1075.175298  	0.295140 
1076.606956  	0.366756 
1078.038614  	0.454086 
1079.470272  	0.510376 
1080.901930  	0.497850 
1082.333589  	0.427079 
1083.765247  	0.339793 
1085.196905  	0.263416 
1086.628563  	0.205480 
1088.060221  	0.169346 
1089.491879  	0.152892 
1090.923538  	0.150024 
1092.355196  	0.156234 
1093.786854  	0.168120 
1095.218512  	0.184422 
1096.650170  	0.206833 
1098.081829  	0.233538 
1099.513487  	0.260680 
1100.945145  	0.281858 
1102.376803  	0.289543 
1103.808461  	0.287260 
1105.240120  	0.281789 
1106.671778  	0.278575 
1108.103436  	0.279957 
1109.535094  	0.279448 
1110.966752  	0.274023 
1112.398410  	0.265999 
1113.830069  	0.256639 
1115.261727  	0.249980 
1116.693385  	0.246666 
1118.125043  	0.245023 
1119.556701  	0.246925 
1120.988360  	0.251632 
1122.420018  	0.258346 
1123.851676  	0.268171 
1125.283334  	0.279790 
1126.714992  	0.293816 
1128.146650  	0.309521 
1129.578309  	0.325570 
1131.009967  	0.345024 
1132.441625  	0.365734 
1133.873283  	0.387019 
1135.304941  	0.412715 
1136.736600  	0.440012 
1138.168258  	0.470780 
1139.599916  	0.507087 
1141.031574  	0.545300 
1142.463232  	0.589192 
1143.894891  	0.635913 
1145.326549  	0.684836 
1146.758207  	0.743040 
1148.189865  	0.801738 
1149.621523  	0.867125 
1151.053181  	0.942486 
1152.484840  	1.011061 
1153.916498  	1.093201 
1155.348156  	1.178267 
1156.779814  	1.241913 
1158.211472  	1.296798 
1159.643131  	1.278743 
1161.074789  	1.196874 
1162.506447  	1.083075 
1163.938105  	0.939815 
1165.369763  	0.809759 
1166.801421  	0.693746 
1168.233080  	0.594345 
1169.664738  	0.525655 
1171.096396  	0.487481 
1172.528054  	0.485462 
1173.959712  	0.523759 
1175.391371  	0.589595 
1176.823029  	0.670279 
1178.254687  	0.752556 
1179.686345  	0.827133 
1181.118003  	0.914730 
1182.549662  	1.013889 
1183.981320  	1.113290 
1185.412978  	1.203109 
1186.844636  	1.216674 
1188.276294  	1.174780 
1189.707952  	1.105040 
1191.139611  	1.006695 
1192.571269  	0.918610 
1194.002927  	0.833612 
1195.434585  	0.751641 
1196.866243  	0.682631 
1198.297902  	0.616527 
1199.729560  	0.557712 
1201.161218  	0.507306 
1202.592876  	0.461888 
1204.024534  	0.429585 
1205.456193  	0.412993 
1206.887851  	0.416589 
1208.319509  	0.449438 
1209.751167  	0.507479 
1211.182825  	0.584301 
1212.614483  	0.672518 
1214.046142  	0.748713 
1215.477800  	0.808506 
1216.909458  	0.845723 
1218.341116  	0.851906 
1219.772774  	0.847855 
1221.204433  	0.827333 
1222.636091  	0.796651 
1224.067749  	0.768231 
1225.499407  	0.731532 
1226.931065  	0.698170 
1228.362723  	0.668578 
1229.794382  	0.635341 
1231.226040  	0.607910 
1232.657698  	0.580877 
1234.089356  	0.553970 
1235.521014  	0.532711 
1236.952673  	0.509537 
1238.384331  	0.488017 
1239.815989  	0.469638 
1241.247647  	0.449169 
1242.679305  	0.430933 
1244.110964  	0.412001 
1245.542622  	0.390471 
1246.974280  	0.370207 
1248.405938  	0.347182 
1249.837596  	0.322296 
1251.269254  	0.297318 
1252.700913  	0.270167 
1254.132571  	0.243622 
1255.564229  	0.217099 
1256.995887  	0.189879 
1258.427545  	0.164594 
1259.859204  	0.140311 
1261.290862  	0.117429 
1262.722520  	0.097661 
1264.154178  	0.080341 
1265.585836  	0.065676 
1267.017495  	0.053964 
1268.449153  	0.044481 
1269.880811  	0.037144 
1271.312469  	0.031716 
1272.744127  	0.027753 
1274.175785  	0.025456 
1275.607444  	0.024378 
1277.039102  	0.024076 
1278.470760  	0.025078 
1279.902418  	0.027248 
1281.334076  	0.030149 
1282.765735  	0.033675 
1284.197393  	0.037525 
1285.629051  	0.041562 
1287.060709  	0.045309 
1288.492367  	0.048491 
1289.924025  	0.051058 
1291.355684  	0.052083 
1292.787342  	0.050913 
1294.219000  	0.047502 
1295.650658  	0.042313 
1297.082316  	0.036069 
1298.513975  	0.029212 
1299.945633  	0.022461 
1301.377291  	0.016798 
1302.808949  	0.012415 
1304.240607  	0.009474 
1305.672266  	0.008853 
1307.103924  	0.010098 
1308.535582  	0.011905 
1309.967240  	0.012494 
1311.398898  	0.009925 
1312.830556  	0.004475 
1314.262215  	-0.002023 
1315.693873  	-0.008080 
1317.125531  	-0.012471 
1318.557189  	-0.015276 
1319.988847  	-0.017531 
1321.420506  	-0.018893 
1322.852164  	-0.019759 
1324.283822  	-0.020498 
1325.715480  	-0.020865 
1327.147138  	-0.021597 
1328.578796  	-0.022213 
1330.010455  	-0.022352 
1331.442113  	-0.022761 
1332.873771  	-0.022870 
1334.305429  	-0.022954 
1335.737087  	-0.023384 
1337.168746  	-0.023312 
1338.600404  	-0.023296 
1340.032062  	-0.023459 
1341.463720  	-0.023541 
1342.895378  	-0.023996 
1344.327037  	-0.024002 
1345.758695  	-0.023834 
1347.190353  	-0.023870 
1348.622011  	-0.023265 
1350.053669  	-0.022964 
1351.485327  	-0.022824 
1352.916986  	-0.022112 
1354.348644  	-0.021547 
1355.780302  	-0.019998 
1357.211960  	-0.017453 
1358.643618  	-0.013208 
1360.075277  	-0.003374 
1361.506935  	0.012479 
1362.938593  	0.031503 
1364.370251  	0.041576 
1365.801909  	0.036572 
1367.233568  	0.022561 
1368.665226  	0.006335 
1370.096884  	-0.005736 
1371.528542  	-0.012329 
1372.960200  	-0.015402 
1374.391858  	-0.017466 
1375.823517  	-0.018340 
1377.255175  	-0.018234 
1378.686833  	-0.017484 
1380.118491  	-0.015137 
1381.550149  	-0.011173 
1382.981808  	-0.003953 
1384.413466  	0.004978 
1385.845124  	0.011685 
1387.276782  	0.012970 
1388.708440  	0.007751 
1390.140098  	0.001181 
1391.571757  	-0.005326 
1393.003415  	-0.009770 
1394.435073  	-0.011656 
1395.866731  	-0.012242 
1397.298389  	-0.011198 
1398.730048  	-0.008689 
1400.161706  	-0.005377 
1401.593364  	-0.000601 
1403.025022  	0.006006 
1404.456680  	0.014210 
1405.888339  	0.024513 
1407.319997  	0.034126 
1408.751655  	0.039526 
1410.183313  	0.040571 
1411.614971  	0.035258 
1413.046629  	0.025005 
1414.478288  	0.014194 
1415.909946  	0.003239 
1417.341604  	-0.005264 
1418.773262  	-0.011004 
1420.204920  	-0.016789 
1421.636579  	-0.019207 
1423.068237  	-0.020177 
1424.499895  	-0.021997 
1425.931553  	-0.022832 
1427.363211  	-0.023263 
1428.794870  	-0.023629 
1430.226528  	-0.023190 
1431.658186  	-0.023513 
1433.089844  	-0.023333 
1434.521502  	-0.022505 
1435.953160  	-0.022350 
1437.384819  	-0.020755 
1438.816477  	-0.019100 
1440.248135  	-0.017359 
1441.679793  	-0.014042 
1443.111451  	-0.011524 
1444.543110  	-0.009149 
1445.974768  	-0.006449 
1447.406426  	-0.004664 
1448.838084  	-0.001705 
1450.269742  	0.000535 
1451.701400  	0.000999 
1453.133059  	0.001462 
1454.564717  	0.001538 
1455.996375  	0.002648 
1457.428033  	0.008205 
1458.859691  	0.013322 
1460.291350  	0.019643 
1461.723008  	0.025817 
1463.154666  	0.030095 
1464.586324  	0.033075 
1466.017982  	0.031437 
1467.449641  	0.029332 
1468.881299  	0.026922 
1470.312957  	0.023546 
1471.744615  	0.022268 
1473.176273  	0.019915 
1474.607931  	0.017951 
1476.039590  	0.019101 
1477.471248  	0.018714 
1478.902906  	0.019808 
1480.334564  	0.023563 
1481.766222  	0.026740 
1483.197881  	0.032589 
1484.629539  	0.040935 
1486.061197  	0.050031 
1487.492855  	0.064589 
1488.924513  	0.080963 
1490.356172  	0.099809 
1491.787830  	0.128943 
1493.219488  	0.154925 
1494.651146  	0.182272 
1496.082804  	0.221086 
1497.514462  	0.259277 
1498.946121  	0.299126 
1500.377779  	0.338808 
1501.809437  	0.358905 
1503.241095  	0.370956 
1504.672753  	0.371441 
1506.104412  	0.340387 
1507.536070  	0.279485 
1508.967728  	0.225671 
1510.399386  	0.178335 
1511.831044  	0.133843 
1513.262702  	0.092950 
1514.694361  	0.064229 
1516.126019  	0.044470 
1517.557677  	0.023775 
1518.989335  	0.011343 
1520.420993  	0.006112 
1521.852652  	-0.003303 
1523.284310  	-0.009428 
1524.715968  	-0.011156 
1526.147626  	-0.015251 
1527.579284  	-0.017969 
1529.010943  	-0.019592 
1530.442601  	-0.021984 
1531.874259  	-0.022528 
1533.305917  	-0.023609 
1534.737575  	-0.026136 
1536.169233  	-0.026322 
1537.600892  	-0.026849 
1539.032550  	-0.027567 
1540.464208  	-0.027789 
1541.895866  	-0.029761 
1543.327524  	-0.030040 
1544.759183  	-0.030490 
1546.190841  	-0.031802 
1547.622499  	-0.031671 
1549.054157  	-0.031797 
1550.485815  	-0.032655 
1551.917473  	-0.032790 
1553.349132  	-0.033045 
1554.780790  	-0.033300 
1556.212448  	-0.033400 
1557.644106  	-0.033592 
1559.075764  	-0.033277 
1560.507423  	-0.034817 
1561.939081  	-0.035058 
1563.370739  	-0.034680 
1564.802397  	-0.035014 
1566.234055  	-0.035131 
1567.665714  	-0.034585 
1569.097372  	-0.034358 
1570.529030  	-0.034261 
1571.960688  	-0.034266 
1573.392346  	-0.034085 
1574.824004  	-0.033438 
1576.255663  	-0.033147 
1577.687321  	-0.032745 
1579.118979  	-0.031847 
1580.550637  	-0.031095 
1581.982295  	-0.029854 
1583.413954  	-0.027803 
1584.845612  	-0.024966 
1586.277270  	-0.021321 
1587.708928  	-0.016963 
1589.140586  	-0.011747 
1590.572245  	-0.007094 
1592.003903  	-0.003717 
1593.435561  	-0.002005 
1594.867219  	-0.002279 
1596.298877  	-0.002952 
1597.730535  	-0.003308 
1599.162194  	-0.002762 
1600.593852  	-0.001537 
1602.025510  	-0.000964 
1603.457168  	-0.001168 
1604.888826  	-0.003085 
1606.320485  	-0.006576 
1607.752143  	-0.010691 
1609.183801  	-0.015516 
1610.615459  	-0.019654 
1612.047117  	-0.023068 
1613.478775  	-0.025696 
1614.910434  	-0.027068 
1616.342092  	-0.028376 
1617.773750  	-0.030046 
1619.205408  	-0.030828 
1620.637066  	-0.031317 
1622.068725  	-0.031762 
1623.500383  	-0.032487 
1624.932041  	-0.033189 
1626.363699  	-0.033323 
1627.795357  	-0.033469 
1629.227016  	-0.033581 
1630.658674  	-0.033439 
1632.090332  	-0.033346 
1633.521990  	-0.032981 
1634.953648  	-0.032335 
1636.385306  	-0.032239 
1637.816965  	-0.032017 
1639.248623  	-0.031549 
1640.680281  	-0.031427 
1642.111939  	-0.031273 
1643.543597  	-0.030645 
1644.975256  	-0.029783 
1646.406914  	-0.029340 
1647.838572  	-0.029874 
1649.270230  	-0.029993 
1650.701888  	-0.029586 
1652.133547  	-0.029034 
1653.565205  	-0.029123 
1654.996863  	-0.029924 
1656.428521  	-0.029871 
1657.860179  	-0.029824 
1659.291837  	-0.030075 
1660.723496  	-0.030065 
1662.155154  	-0.029880 
1663.586812  	-0.030165 
1665.018470  	-0.030473 
1666.450128  	-0.030663 
1667.881787  	-0.030692 
1669.313445  	-0.030661 
1670.745103  	-0.031501 
1672.176761  	-0.031919 
1673.608419  	-0.031792 
1675.040077  	-0.032377 
1676.471736  	-0.032817 
1677.903394  	-0.032466 
1679.335052  	-0.032308 
1680.766710  	-0.032207 
1682.198368  	-0.031924 
1683.630027  	-0.031219 
1685.061685  	-0.031733 
1686.493343  	-0.032325 
1687.925001  	-0.031564 
1689.356659  	-0.031107 
1690.788318  	-0.031109 
1692.219976  	-0.030237 
1693.651634  	-0.029379 
1695.083292  	-0.028363 
1696.514950  	-0.027382 
1697.946608  	-0.027288 
1699.378267  	-0.025751 
1700.809925  	-0.024681 
1702.241583  	-0.024898 
1703.673241  	-0.022874 
1705.104899  	-0.021623 
1706.536558  	-0.021189 
1707.968216  	-0.019353 
1709.399874  	-0.018407 
1710.831532  	-0.016885 
1712.263190  	-0.014673 
1713.694849  	-0.013625 
1715.126507  	-0.011407 
1716.558165  	-0.009446 
1717.989823  	-0.009136 
1719.421481  	-0.006291 
1720.853139  	-0.004287 
1722.284798  	-0.002000 
1723.716456  	0.001280 
1725.148114  	0.003338 
1726.579772  	0.006588 
1728.011430  	0.009783 
1729.443089  	0.011698 
1730.874747  	0.015369 
1732.306405  	0.017658 
1733.738063  	0.019161 
1735.169721  	0.023050 
1736.601379  	0.024799 
1738.033038  	0.028454 
1739.464696  	0.032730 
1740.896354  	0.035052 
1742.328012  	0.040611 
1743.759670  	0.045739 
1745.191329  	0.051234 
1746.622987  	0.060668 
1748.054645  	0.068646 
1749.486303  	0.079300 
1750.917961  	0.094786 
1752.349620  	0.110451 
1753.781278  	0.132201 
1755.212936  	0.155777 
1756.644594  	0.184000 
1758.076252  	0.227502 
1759.507910  	0.269874 
1760.939569  	0.315225 
1762.371227  	0.379640 
1763.802885  	0.433497 
1765.234543  	0.475080 
1766.666201  	0.514352 
1768.097860  	0.524680 
1769.529518  	0.525361 
1770.961176  	0.524627 
1772.392834  	0.487777 
1773.824492  	0.455877 
1775.256150  	0.432976 
1776.687809  	0.395958 
1778.119467  	0.366461 
1779.551125  	0.336772 
1780.982783  	0.298333 
1782.414441  	0.270643 
1783.846100  	0.243130 
1785.277758  	0.211379 
1786.709416  	0.185835 
1788.141074  	0.159522 
1789.572732  	0.136352 
1791.004391  	0.117151 
1792.436049  	0.090051 
1793.867707  	0.069466 
1795.299365  	0.055649 
1796.731023  	0.039808 
1798.162681  	0.029481 
1799.594340  	0.019719 
1801.025998  	0.009233 
1802.457656  	0.004074 
1803.889314  	-0.002566 
1805.320972  	-0.007462 
1806.752631  	-0.010069 
1808.184289  	-0.014900 
1809.615947  	-0.016802 
1811.047605  	-0.018806 
1812.479263  	-0.022384 
1813.910922  	-0.022759 
1815.342580  	-0.024890 
1816.774238  	-0.026734 
1818.205896  	-0.026481 
1819.637554  	-0.028609 
1821.069212  	-0.028840 
1822.500871  	-0.028935 
1823.932529  	-0.030862 
1825.364187  	-0.030250 
1826.795845  	-0.031544 
1828.227503  	-0.032928 
1829.659162  	-0.031857 
1831.090820  	-0.033310 
1832.522478  	-0.033310 
1833.954136  	-0.033130 
1835.385794  	-0.034802 
1836.817452  	-0.034027 
1838.249111  	-0.034475 
1839.680769  	-0.035637 
1841.112427  	-0.034568 
1842.544085  	-0.035724 
1843.975743  	-0.036362 
1845.407402  	-0.035733 
1846.839060  	-0.037368 
1848.270718  	-0.036700 
1849.702376  	-0.036409 
1851.134034  	-0.036821 
1852.565693  	-0.035551 
1853.997351  	-0.036926 
1855.429009  	-0.037525 
1856.860667  	-0.036079 
1858.292325  	-0.037114 
1859.723983  	-0.036979 
1861.155642  	-0.036940 
1862.587300  	-0.038253 
1864.018958  	-0.037381 
1865.450616  	-0.037902 
1866.882274  	-0.037961 
1868.313933  	-0.035909 
1869.745591  	-0.037651 
1871.177249  	-0.037737 
1872.608907  	-0.036502 
1874.040565  	-0.037488 
1875.472224  	-0.036845 
1876.903882  	-0.036733 
1878.335540  	-0.037399 
1879.767198  	-0.036550 
1881.198856  	-0.037375 
1882.630514  	-0.037140 
1884.062173  	-0.036031 
1885.493831  	-0.036955 
1886.925489  	-0.035850 
1888.357147  	-0.034965 
1889.788805  	-0.035376 
1891.220464  	-0.033787 
1892.652122  	-0.033721 
1894.083780  	-0.033383 
1895.515438  	-0.032020 
1896.947096  	-0.032841 
1898.378754  	-0.032509 
1899.810413  	-0.032206 
1901.242071  	-0.032991 
1902.673729  	-0.032389 
1904.105387  	-0.033154 
1905.537045  	-0.033635 
1906.968704  	-0.033457 
1908.400362  	-0.035621 
1909.832020  	-0.036064 
1911.263678  	-0.036469 
1912.695336  	-0.038532 
1914.126995  	-0.038369 
1915.558653  	-0.039510 
1916.990311  	-0.040592 
1918.421969  	-0.039083 
1919.853627  	-0.040545 
1921.285285  	-0.040903 
1922.716944  	-0.039820 
1924.148602  	-0.040913 
1925.580260  	-0.039741 
1927.011918  	-0.039289 
1928.443576  	-0.040781 
1929.875235  	-0.040609 
1931.306893  	-0.041686 
1932.738551  	-0.041667 
1934.170209  	-0.040664 
1935.601867  	-0.042206 
1937.033525  	-0.041577 
1938.465184  	-0.041001 
1939.896842  	-0.041662 
1941.328500  	-0.040213 
1942.760158  	-0.041393 
1944.191816  	-0.041734 
1945.623475  	-0.039999 
1947.055133  	-0.041780 
1948.486791  	-0.041353 
1949.918449  	-0.040058 
1951.350107  	-0.041030 
1952.781766  	-0.040203 
1954.213424  	-0.041612 
1955.645082  	-0.042625 
1957.076740  	-0.041533 
1958.508398  	-0.043759 
1959.940056  	-0.041750 
1961.371715  	-0.039356 
1962.803373  	-0.042621 
1964.235031  	-0.041108 
1965.666689  	-0.039857 
1967.098347  	-0.041268 
1968.530006  	-0.039964 
1969.961664  	-0.041339 
1971.393322  	-0.040288 
1972.824980  	-0.039029 
1974.256638  	-0.042300 
1975.688297  	-0.039864 
1977.119955  	-0.039123 
1978.551613  	-0.042339 
1979.983271  	-0.041165 
1981.414929  	-0.042459 
1982.846587  	-0.042221 
1984.278246  	-0.040558 
1985.709904  	-0.042927 
1987.141562  	-0.041797 
1988.573220  	-0.041390 
1990.004878  	-0.043196 
1991.436537  	-0.040936 
1992.868195  	-0.042235 
1994.299853  	-0.042950 
1995.731511  	-0.039966 
1997.163169  	-0.040888 
1998.594827  	-0.039858 
2000.026486  	-0.039151 
2001.458144  	-0.041847 
2002.889802  	-0.039685 
2004.321460  	-0.039255 
2005.753118  	-0.041130 
2007.184777  	-0.039452 
2008.616435  	-0.040559 
2010.048093  	-0.040174 
2011.479751  	-0.039513 
2012.911409  	-0.042533 
2014.343068  	-0.041991 
2015.774726  	-0.042833 
2017.206384  	-0.042863 
2018.638042  	-0.038409 
2020.069700  	-0.040445 
2021.501358  	-0.040922 
2022.933017  	-0.038718 
2024.364675  	-0.042106 
2025.796333  	-0.040731 
2027.227991  	-0.038916 
2028.659649  	-0.041223 
2030.091308  	-0.039771 
2031.522966  	-0.040600 
2032.954624  	-0.041299 
2034.386282  	-0.039924 
2035.817940  	-0.041570 
2037.249599  	-0.039149 
2038.681257  	-0.037892 
2040.112915  	-0.039831 
2041.544573  	-0.037790 
2042.976231  	-0.038582 
2044.407889  	-0.039533 
2045.839548  	-0.037591 
2047.271206  	-0.039410 
2048.702864  	-0.040048 
2050.134522  	-0.040283 
2051.566180  	-0.041543 
2052.997839  	-0.039079 
2054.429497  	-0.038761 
2055.861155  	-0.040124 
2057.292813  	-0.040321 
2058.724471  	-0.043321 
2060.156129  	-0.043186 
2061.587788  	-0.040883 
2063.019446  	-0.042825 
2064.451104  	-0.043465 
2065.882762  	-0.043514 
2067.314420  	-0.044426 
2068.746079  	-0.043422 
2070.177737  	-0.043930 
2071.609395  	-0.043491 
2073.041053  	-0.041996 
2074.472711  	-0.043093 
2075.904370  	-0.042317 
2077.336028  	-0.041787 
2078.767686  	-0.043468 
2080.199344  	-0.042922 
2081.631002  	-0.042933 
2083.062660  	-0.043290 
2084.494319  	-0.042555 
2085.925977  	-0.043329 
2087.357635  	-0.042867 
2088.789293  	-0.042538 
2090.220951  	-0.044020 
2091.652610  	-0.043521 
2093.084268  	-0.043940 
2094.515926  	-0.045045 
2095.947584  	-0.044197 
2097.379242  	-0.045297 
2098.810901  	-0.045634 
2100.242559  	-0.044065 
2101.674217  	-0.044532 
2103.105875  	-0.044945 
2104.537533  	-0.045876 
2105.969191  	-0.047098 
2107.400850  	-0.046092 
2108.832508  	-0.046004 
2110.264166  	-0.045979 
2111.695824  	-0.045084 
2113.127482  	-0.045416 
2114.559141  	-0.044875 
2115.990799  	-0.044820 
2117.422457  	-0.045615 
2118.854115  	-0.044907 
2120.285773  	-0.045655 
2121.717431  	-0.046124 
2123.149090  	-0.044771 
2124.580748  	-0.045553 
2126.012406  	-0.045527 
2127.444064  	-0.044083 
2128.875722  	-0.044291 
2130.307381  	-0.044010 
2131.739039  	-0.044403 
2133.170697  	-0.045029 
2134.602355  	-0.044028 
2136.034013  	-0.044662 
2137.465672  	-0.044226 
2138.897330  	-0.042917 
2140.328988  	-0.044779 
2141.760646  	-0.045724 
2143.192304  	-0.045060 
2144.623962  	-0.043184 
2146.055621  	-0.041173 
2147.487279  	-0.043370 
2148.918937  	-0.043264 
2150.350595  	-0.040819 
2151.782253  	-0.042247 
2153.213912  	-0.041302 
2154.645570  	-0.040354 
2156.077228  	-0.042167 
2157.508886  	-0.040590 
2158.940544  	-0.040215 
2160.372202  	-0.038924 
2161.803861  	-0.037590 
2163.235519  	-0.042185 
2164.667177  	-0.043444 
2166.098835  	-0.042815 
2167.530493  	-0.043665 
2168.962152  	-0.042049 
2170.393810  	-0.043230 
2171.825468  	-0.043276 
2173.257126  	-0.040731 
2174.688784  	-0.043084 
2176.120443  	-0.042774 
2177.552101  	-0.040623 
2178.983759  	-0.042849 
2180.415417  	-0.041625 
2181.847075  	-0.040800 
2183.278733  	-0.042537 
2184.710392  	-0.040280 
2186.142050  	-0.040005 
2187.573708  	-0.041348 
2189.005366  	-0.040422 
2190.437024  	-0.040855 
2191.868683  	-0.041048 
2193.300341  	-0.040976 
2194.731999  	-0.041413 
2196.163657  	-0.040585 
2197.595315  	-0.040539 
2199.026974  	-0.039677 
2200.458632  	-0.038553 
2201.890290  	-0.040167 
2203.321948  	-0.041158 
2204.753606  	-0.042031 
2206.185264  	-0.042913 
2207.616923  	-0.041525 
2209.048581  	-0.041700 
2210.480239  	-0.042071 
2211.911897  	-0.040973 
2213.343555  	-0.041540 
2214.775214  	-0.041089 
2216.206872  	-0.040251 
2217.638530  	-0.040883 
2219.070188  	-0.039944 
2220.501846  	-0.039077 
2221.933504  	-0.038884 
2223.365163  	-0.038744 
2224.796821  	-0.039648 
2226.228479  	-0.038639 
2227.660137  	-0.037463 
2229.091795  	-0.038407 
2230.523454  	-0.038212 
2231.955112  	-0.038430 
2233.386770  	-0.039064 
2234.818428  	-0.038192 
2236.250086  	-0.038676 
2237.681745  	-0.039652 
2239.113403  	-0.039939 
2240.545061  	-0.040400 
2241.976719  	-0.039749 
2243.408377  	-0.039755 
2244.840035  	-0.040536 
2246.271694  	-0.040676 
2247.703352  	-0.041811 
2249.135010  	-0.041992 
2250.566668  	-0.040904 
2251.998326  	-0.040835 
2253.429985  	-0.040465 
2254.861643  	-0.041306 
2256.293301  	-0.043159 
2257.724959  	-0.043001 
2259.156617  	-0.043184 
2260.588276  	-0.043819 
2262.019934  	-0.043502 
2263.451592  	-0.043765 
2264.883250  	-0.043818 
2266.314908  	-0.044401 
2267.746566  	-0.045920 
2269.178225  	-0.046048 
2270.609883  	-0.045724 
2272.041541  	-0.045089 
2273.473199  	-0.044622 
2274.904857  	-0.046252 
2276.336516  	-0.047039 
2277.768174  	-0.046322 
2279.199832  	-0.046437 
2280.631490  	-0.046377 
2282.063148  	-0.046351 
2283.494806  	-0.046519 
2284.926465  	-0.046519 
2286.358123  	-0.047127 
2287.789781  	-0.046895 
2289.221439  	-0.046594 
2290.653097  	-0.047581 
2292.084756  	-0.047359 
2293.516414  	-0.046760 
2294.948072  	-0.047316 
2296.379730  	-0.047287 
2297.811388  	-0.047134 
2299.243047  	-0.047039 
2300.674705  	-0.046383 
2302.106363  	-0.046157 
2303.538021  	-0.046023 
2304.969679  	-0.045942 
2306.401337  	-0.046004 
2307.832996  	-0.045469 
2309.264654  	-0.045407 
2310.696312  	-0.045583 
2312.127970  	-0.045171 
2313.559628  	-0.045292 
2314.991287  	-0.045331 
2316.422945  	-0.045049 
2317.854603  	-0.045015 
2319.286261  	-0.044346 
2320.717919  	-0.043885 
2322.149577  	-0.043917 
2323.581236  	-0.043555 
2325.012894  	-0.043682 
2326.444552  	-0.043596 
2327.876210  	-0.042731 
2329.307868  	-0.042267 
2330.739527  	-0.042175 
2332.171185  	-0.042479 
2333.602843  	-0.042821 
2335.034501  	-0.042575 
2336.466159  	-0.042698 
2337.897818  	-0.042759 
2339.329476  	-0.042589 
2340.761134  	-0.042986 
2342.192792  	-0.042753 
2343.624450  	-0.042392 
2345.056108  	-0.042946 
2346.487767  	-0.043705 
2347.919425  	-0.044819 
2349.351083  	-0.045202 
2350.782741  	-0.044023 
2352.214399  	-0.042796 
2353.646058  	-0.042483 
2355.077716  	-0.042431 
2356.509374  	-0.042169 
2357.941032  	-0.041322 
2359.372690  	-0.041144 
2360.804349  	-0.041538 
2362.236007  	-0.041391 
2363.667665  	-0.041665 
2365.099323  	-0.041914 
2366.530981  	-0.041989 
2367.962639  	-0.042557 
2369.394298  	-0.042835 
2370.825956  	-0.043206 
2372.257614  	-0.043472 
2373.689272  	-0.043297 
2375.120930  	-0.043745 
2376.552589  	-0.044054 
2377.984247  	-0.044164 
2379.415905  	-0.044854 
2380.847563  	-0.045060 
2382.279221  	-0.045144 
2383.710879  	-0.045738 
2385.142538  	-0.045904 
2386.574196  	-0.045929 
2388.005854  	-0.045946 
2389.437512  	-0.045559 
2390.869170  	-0.045452 
2392.300829  	-0.045520 
2393.732487  	-0.045470 
2395.164145  	-0.045613 
2396.595803  	-0.045636 
2398.027461  	-0.045376 
2399.459120  	-0.045203 
2400.890778  	-0.045498 
2402.322436  	-0.045623 
2403.754094  	-0.044930 
2405.185752  	-0.044749 
2406.617410  	-0.045141 
2408.049069  	-0.044953 
2409.480727  	-0.044879 
2410.912385  	-0.044748 
2412.344043  	-0.044521 
2413.775701  	-0.045084 
2415.207360  	-0.045212 
2416.639018  	-0.044982 
2418.070676  	-0.045401 
2419.502334  	-0.045422 
2420.933992  	-0.045329 
2422.365651  	-0.045391 
2423.797309  	-0.045138 
2425.228967  	-0.045457 
2426.660625  	-0.045792 
2428.092283  	-0.045832 
2429.523941  	-0.046190 
2430.955600  	-0.045907 
2432.387258  	-0.045773 
2433.818916  	-0.046391 
2435.250574  	-0.046253 
2436.682232  	-0.045964 
2438.113891  	-0.046038 
2439.545549  	-0.046192 
2440.977207  	-0.046805 
2442.408865  	-0.046799 
2443.840523  	-0.046347 
2445.272181  	-0.046432 
2446.703840  	-0.046144 
2448.135498  	-0.045884 
2449.567156  	-0.046210 
2450.998814  	-0.046530 
2452.430472  	-0.046800 
2453.862131  	-0.046567 
2455.293789  	-0.046372 
2456.725447  	-0.046766 
2458.157105  	-0.046611 
2459.588763  	-0.046235 
2461.020422  	-0.046134 
2462.452080  	-0.046134 
2463.883738  	-0.046727 
2465.315396  	-0.046814 
2466.747054  	-0.046185 
2468.178712  	-0.046227 
2469.610371  	-0.046275 
2471.042029  	-0.046166 
2472.473687  	-0.046463 
2473.905345  	-0.046607 
2475.337003  	-0.046677 
2476.768662  	-0.046532 
2478.200320  	-0.046184 
2479.631978  	-0.046216 
2481.063636  	-0.046385 
2482.495294  	-0.046793 
2483.926953  	-0.046930 
2485.358611  	-0.046551 
2486.790269  	-0.047073 
2488.221927  	-0.047633 
2489.653585  	-0.047447 
2491.085243  	-0.047797 
2492.516902  	-0.047960 
2493.948560  	-0.047778 
2495.380218  	-0.047872 
2496.811876  	-0.047601 
2498.243534  	-0.047913 
2499.675193  	-0.048637 
2501.106851  	-0.048489 
2502.538509  	-0.048462 
2503.970167  	-0.048423 
2505.401825  	-0.048047 
2506.833483  	-0.048227 
2508.265142  	-0.048435 
2509.696800  	-0.048568 
2511.128458  	-0.048575 
2512.560116  	-0.048265 
2513.991774  	-0.048692 
2515.423433  	-0.049036 
2516.855091  	-0.048605 
2518.286749  	-0.048658 
2519.718407  	-0.048897 
2521.150065  	-0.049075 
2522.581724  	-0.049234 
2524.013382  	-0.048921 
2525.445040  	-0.048964 
2526.876698  	-0.049303 
2528.308356  	-0.049544 
2529.740014  	-0.049825 
2531.171673  	-0.049319 
2532.603331  	-0.048948 
2534.034989  	-0.049304 
2535.466647  	-0.049181 
2536.898305  	-0.049376 
2538.329964  	-0.049655 
2539.761622  	-0.049342 
2541.193280  	-0.049938 
2542.624938  	-0.050352 
2544.056596  	-0.049669 
2545.488254  	-0.049598 
2546.919913  	-0.049914 
2548.351571  	-0.050014 
2549.783229  	-0.049699 
2551.214887  	-0.049101 
2552.646545  	-0.049739 
2554.078204  	-0.050654 
2555.509862  	-0.050340 
2556.941520  	-0.049883 
2558.373178  	-0.049625 
2559.804836  	-0.049699 
2561.236495  	-0.050052 
2562.668153  	-0.049963 
2564.099811  	-0.050070 
2565.531469  	-0.050020 
2566.963127  	-0.049407 
2568.394785  	-0.049482 
2569.826444  	-0.049725 
2571.258102  	-0.049675 
2572.689760  	-0.049836 
2574.121418  	-0.049502 
2575.553076  	-0.049119 
2576.984735  	-0.049316 
2578.416393  	-0.049517 
2579.848051  	-0.049752 
2581.279709  	-0.049715 
2582.711367  	-0.049449 
2584.143026  	-0.049577 
2585.574684  	-0.049621 
2587.006342  	-0.049409 
2588.438000  	-0.049027 
2589.869658  	-0.048687 
2591.301316  	-0.049082 
2592.732975  	-0.049500 
2594.164633  	-0.049448 
2595.596291  	-0.049555 
2597.027949  	-0.049628 
2598.459607  	-0.049868 
2599.891266  	-0.050385 
2601.322924  	-0.050489 
2602.754582  	-0.050341 
2604.186240  	-0.050023 
2605.617898  	-0.049606 
2607.049556  	-0.049558 
2608.481215  	-0.049599 
2609.912873  	-0.049666 
2611.344531  	-0.049807 
2612.776189  	-0.049850 
2614.207847  	-0.050085 
2615.639506  	-0.050223 
2617.071164  	-0.050140 
2618.502822  	-0.050146 
2619.934480  	-0.049938 
2621.366138  	-0.049907 
2622.797797  	-0.050254 
2624.229455  	-0.050374 
2625.661113  	-0.050522 
2627.092771  	-0.050710 
2628.524429  	-0.050751 
2629.956087  	-0.050844 
2631.387746  	-0.050715 
2632.819404  	-0.050754 
2634.251062  	-0.051074 
2635.682720  	-0.050988 
2637.114378  	-0.050951 
2638.546037  	-0.050990 
2639.977695  	-0.050784 
2641.409353  	-0.050930 
2642.841011  	-0.051009 
2644.272669  	-0.050759 
2645.704328  	-0.050722 
2647.135986  	-0.050608 
2648.567644  	-0.050585 
2649.999302  	-0.050825 
2651.430960  	-0.050823 
2652.862618  	-0.050777 
2654.294277  	-0.050697 
2655.725935  	-0.050566 
2657.157593  	-0.050659 
2658.589251  	-0.050580 
2660.020909  	-0.050447 
2661.452568  	-0.050433 
2662.884226  	-0.050184 
2664.315884  	-0.050201 
2665.747542  	-0.050465 
2667.179200  	-0.050354 
2668.610858  	-0.050185 
2670.042517  	-0.050137 
2671.474175  	-0.050210 
2672.905833  	-0.050330 
2674.337491  	-0.050192 
2675.769149  	-0.050277 
2677.200808  	-0.050512 
2678.632466  	-0.050343 
2680.064124  	-0.050258 
2681.495782  	-0.050216 
2682.927440  	-0.050010 
2684.359099  	-0.050145 
2685.790757  	-0.050330 
2687.222415  	-0.050270 
2688.654073  	-0.050200 
2690.085731  	-0.050126 
2691.517389  	-0.050147 
2692.949048  	-0.050157 
2694.380706  	-0.050143 
2695.812364  	-0.050221 
2697.244022  	-0.050059 
2698.675680  	-0.049919 
2700.107339  	-0.050063 
2701.538997  	-0.050031 
2702.970655  	-0.049904 
2704.402313  	-0.049822 
2705.833971  	-0.049729 
2707.265630  	-0.049700 
2708.697288  	-0.049491 
2710.128946  	-0.049319 
2711.560604  	-0.049330 
2712.992262  	-0.049121 
2714.423920  	-0.049013 
2715.855579  	-0.049130 
2717.287237  	-0.049167 
2718.718895  	-0.049286 
2720.150553  	-0.049344 
2721.582211  	-0.049390 
2723.013870  	-0.049567 
2724.445528  	-0.049463 
2725.877186  	-0.049320 
2727.308844  	-0.049333 
2728.740502  	-0.049236 
2730.172160  	-0.049264 
2731.603819  	-0.049316 
2733.035477  	-0.049286 
2734.467135  	-0.049369 
2735.898793  	-0.049351 
2737.330451  	-0.049484 
2738.762110  	-0.049810 
2740.193768  	-0.049769 
2741.625426  	-0.049617 
2743.057084  	-0.049666 
2744.488742  	-0.049827 
2745.920401  	-0.049917 
2747.352059  	-0.049676 
2748.783717  	-0.049618 
2750.215375  	-0.049817 
2751.647033  	-0.049698 
2753.078691  	-0.049676 
2754.510350  	-0.049744 
2755.942008  	-0.049535 
2757.373666  	-0.049417 
2758.805324  	-0.049194 
2760.236982  	-0.048970 
2761.668641  	-0.049122 
2763.100299  	-0.049030 
2764.531957  	-0.048807 
2765.963615  	-0.048909 
2767.395273  	-0.048912 
2768.826931  	-0.048692 
2770.258590  	-0.048327 
2771.690248  	-0.048026 
2773.121906  	-0.047990 
2774.553564  	-0.047899 
2775.985222  	-0.047794 
2777.416881  	-0.047653 
2778.848539  	-0.047409 
2780.280197  	-0.047653 
2781.711855  	-0.048024 
2783.143513  	-0.047895 
2784.575172  	-0.047823 
2786.006830  	-0.048044 
2787.438488  	-0.048282 
2788.870146  	-0.048386 
2790.301804  	-0.048390 
2791.733462  	-0.048480 
2793.165121  	-0.048377 
2794.596779  	-0.048197 
2796.028437  	-0.048282 
2797.460095  	-0.048240 
2798.891753  	-0.048338 
2800.323412  	-0.048653 
2801.755070  	-0.048485 
2803.186728  	-0.048261 
2804.618386  	-0.048146 
2806.050044  	-0.047872 
2807.481703  	-0.047985 
2808.913361  	-0.048118 
2810.345019  	-0.047921 
2811.776677  	-0.047876 
2813.208335  	-0.047798 
2814.639993  	-0.047881 
2816.071652  	-0.048208 
2817.503310  	-0.048138 
2818.934968  	-0.047999 
2820.366626  	-0.047965 
2821.798284  	-0.047818 
2823.229943  	-0.047912 
2824.661601  	-0.048084 
2826.093259  	-0.048208 
2827.524917  	-0.048225 
2828.956575  	-0.047790 
2830.388233  	-0.047613 
2831.819892  	-0.047945 
2833.251550  	-0.047974 
2834.683208  	-0.047751 
2836.114866  	-0.047458 
2837.546524  	-0.047109 
2838.978183  	-0.046938 
2840.409841  	-0.046715 
2841.841499  	-0.046416 
2843.273157  	-0.046219 
2844.704815  	-0.045968 
2846.136474  	-0.045591 
2847.568132  	-0.045092 
2848.999790  	-0.044767 
2850.431448  	-0.044560 
2851.863106  	-0.043944 
2853.294764  	-0.043351 
2854.726423  	-0.043038 
2856.158081  	-0.042502 
2857.589739  	-0.041862 
2859.021397  	-0.041099 
2860.453055  	-0.040017 
2861.884714  	-0.038683 
2863.316372  	-0.036870 
2864.748030  	-0.034820 
2866.179688  	-0.032684 
2867.611346  	-0.030109 
2869.043005  	-0.027556 
2870.474663  	-0.025479 
2871.906321  	-0.023961 
2873.337979  	-0.023335 
2874.769637  	-0.023417 
2876.201295  	-0.024024 
2877.632954  	-0.025247 
2879.064612  	-0.026696 
2880.496270  	-0.028267 
2881.927928  	-0.029919 
2883.359586  	-0.031163 
2884.791245  	-0.031878 
2886.222903  	-0.032113 
2887.654561  	-0.032053 
2889.086219  	-0.031969 
2890.517877  	-0.031748 
2891.949535  	-0.031601 
2893.381194  	-0.031767 
2894.812852  	-0.032008 
2896.244510  	-0.032379 
2897.676168  	-0.032849 
2899.107826  	-0.033114 
2900.539485  	-0.033198 
2901.971143  	-0.033120 
2903.402801  	-0.032725 
2904.834459  	-0.031954 
2906.266117  	-0.031042 
2907.697776  	-0.030300 
2909.129434  	-0.029627 
2910.561092  	-0.028967 
2911.992750  	-0.028515 
2913.424408  	-0.028375 
2914.856066  	-0.028548 
2916.287725  	-0.028800 
2917.719383  	-0.028984 
2919.151041  	-0.028923 
2920.582699  	-0.028234 
2922.014357  	-0.027245 
2923.446016  	-0.026121 
2924.877674  	-0.024365 
2926.309332  	-0.022438 
2927.740990  	-0.020800 
2929.172648  	-0.019131 
2930.604306  	-0.017451 
2932.035965  	-0.015918 
2933.467623  	-0.015019 
2934.899281  	-0.014984 
2936.330939  	-0.015017 
2937.762597  	-0.015080 
2939.194256  	-0.015579 
2940.625914  	-0.016091 
2942.057572  	-0.016520 
2943.489230  	-0.016965 
2944.920888  	-0.017270 
2946.352547  	-0.017435 
2947.784205  	-0.017300 
2949.215863  	-0.016836 
2950.647521  	-0.015915 
2952.079179  	-0.014259 
2953.510837  	-0.012124 
2954.942496  	-0.009252 
2956.374154  	-0.005080 
2957.805812  	0.000150 
2959.237470  	0.006088 
2960.669128  	0.012223 
2962.100787  	0.018312 
2963.532445  	0.024335 
2964.964103  	0.029371 
2966.395761  	0.032871 
2967.827419  	0.034927 
2969.259078  	0.035220 
2970.690736  	0.033828 
2972.122394  	0.031196 
2973.554052  	0.027464 
2974.985710  	0.022865 
2976.417368  	0.017814 
2977.849027  	0.012793 
2979.280685  	0.007885 
2980.712343  	0.002774 
2982.144001  	-0.002158 
2983.575659  	-0.006591 
2985.007318  	-0.010736 
2986.438976  	-0.014442 
2987.870634  	-0.018013 
2989.302292  	-0.021558 
2990.733950  	-0.024498 
2992.165608  	-0.027163 
2993.597267  	-0.029565 
2995.028925  	-0.031520 
2996.460583  	-0.033713 
2997.892241  	-0.035614 
2999.323899  	-0.036830 
3000.755558  	-0.038128 
3002.187216  	-0.039327 
3003.618874  	-0.040548 
3005.050532  	-0.041877 
3006.482190  	-0.042591 
3007.913849  	-0.043317 
3009.345507  	-0.044208 
3010.777165  	-0.044523 
3012.208823  	-0.044983 
3013.640481  	-0.045784 
3015.072139  	-0.046262 
3016.503798  	-0.046496 
3017.935456  	-0.046546 
3019.367114  	-0.046657 
3020.798772  	-0.046934 
3022.230430  	-0.046995 
3023.662089  	-0.046819 
3025.093747  	-0.046407 
3026.525405  	-0.045985 
3027.957063  	-0.045683 
3029.388721  	-0.044917 
3030.820380  	-0.043665 
3032.252038  	-0.042162 
3033.683696  	-0.040601 
3035.115354  	-0.039467 
3036.547012  	-0.038376 
3037.978670  	-0.037063 
3039.410329  	-0.036063 
3040.841987  	-0.035472 
3042.273645  	-0.035443 
3043.705303  	-0.035820 
3045.136961  	-0.036144 
3046.568620  	-0.036868 
3048.000278  	-0.037900 
3049.431936  	-0.038579 
3050.863594  	-0.038951 
3052.295252  	-0.038784 
3053.726910  	-0.038172 
3055.158569  	-0.037718 
3056.590227  	-0.037330 
3058.021885  	-0.037058 
3059.453543  	-0.037126 
3060.885201  	-0.037373 
3062.316860  	-0.037612 
3063.748518  	-0.037762 
3065.180176  	-0.038195 
3066.611834  	-0.038902 
3068.043492  	-0.039472 
3069.475151  	-0.040287 
3070.906809  	-0.041160 
3072.338467  	-0.041527 
3073.770125  	-0.041897 
3075.201783  	-0.042397 
3076.633441  	-0.042771 
3078.065100  	-0.043182 
3079.496758  	-0.043627 
3080.928416  	-0.044110 
3082.360074  	-0.044489 
3083.791732  	-0.044885 
3085.223391  	-0.045535 
3086.655049  	-0.045807 
3088.086707  	-0.045930 
3089.518365  	-0.046414 
3090.950023  	-0.046608 
3092.381682  	-0.047019 
3093.813340  	-0.047873 
3095.244998  	-0.048042 
3096.676656  	-0.048010 
3098.108314  	-0.048166 
3099.539972  	-0.047933 
3100.971631  	-0.047746 
3102.403289  	-0.047691 
3103.834947  	-0.047755 
3105.266605  	-0.048201 
3106.698263  	-0.048350 
3108.129922  	-0.048169 
3109.561580  	-0.048104 
3110.993238  	-0.048003 
3112.424896  	-0.048030 
3113.856554  	-0.048096 
3115.288212  	-0.048132 
3116.719871  	-0.048420 
3118.151529  	-0.048748 
3119.583187  	-0.049107 
3121.014845  	-0.049279 
3122.446503  	-0.049066 
3123.878162  	-0.049206 
3125.309820  	-0.049510 
3126.741478  	-0.049582 
3128.173136  	-0.049918 
3129.604794  	-0.050129 
3131.036453  	-0.050137 
3132.468111  	-0.050476 
3133.899769  	-0.050795 
3135.331427  	-0.051010 
3136.763085  	-0.051104 
3138.194743  	-0.051020 
3139.626402  	-0.051307 
3141.058060  	-0.051628 
3142.489718  	-0.051609 
3143.921376  	-0.051701 
3145.353034  	-0.051724 
3146.784693  	-0.051685 
3148.216351  	-0.051815 
3149.648009  	-0.051801 
3151.079667  	-0.051804 
3152.511325  	-0.051969 
3153.942983  	-0.051996 
3155.374642  	-0.051878 
3156.806300  	-0.051759 
3158.237958  	-0.051837 
3159.669616  	-0.052132 
3161.101274  	-0.052494 
3162.532933  	-0.052644 
3163.964591  	-0.052273 
3165.396249  	-0.052053 
3166.827907  	-0.052313 
3168.259565  	-0.052212 
3169.691224  	-0.052041 
3171.122882  	-0.052133 
3172.554540  	-0.051899 
3173.986198  	-0.051881 
3175.417856  	-0.052291 
3176.849514  	-0.052331 
3178.281173  	-0.052151 
3179.712831  	-0.052113 
3181.144489  	-0.052246 
3182.576147  	-0.052461 
3184.007805  	-0.052398 
3185.439464  	-0.052163 
3186.871122  	-0.051988 
3188.302780  	-0.051977 
3189.734438  	-0.052230 
3191.166096  	-0.052253 
3192.597755  	-0.052005 
3194.029413  	-0.051967 
3195.461071  	-0.051991 
3196.892729  	-0.052115 
3198.324387  	-0.052348 
3199.756045  	-0.052268 
3201.187704  	-0.052115 
3202.619362  	-0.052266 
3204.051020  	-0.052493 
3205.482678  	-0.052424 
3206.914336  	-0.052177 
3208.345995  	-0.052309 
3209.777653  	-0.052620 
3211.209311  	-0.052668 
3212.640969  	-0.052735 
3214.072627  	-0.052806 
3215.504285  	-0.052768 
3216.935944  	-0.052713 
3218.367602  	-0.052528 
3219.799260  	-0.052462 
3221.230918  	-0.052572 
3222.662576  	-0.052693 
3224.094235  	-0.053022 
3225.525893  	-0.053176 
3226.957551  	-0.053032 
3228.389209  	-0.053099 
3229.820867  	-0.053093 
3231.252526  	-0.052866 
3232.684184  	-0.052757 
3234.115842  	-0.052776 
3235.547500  	-0.052936 
3236.979158  	-0.053018 
3238.410816  	-0.053020 
3239.842475  	-0.053234 
3241.274133  	-0.053345 
3242.705791  	-0.053276 
3244.137449  	-0.053133 
3245.569107  	-0.052867 
3247.000766  	-0.052913 
3248.432424  	-0.053044 
3249.864082  	-0.052971 
3251.295740  	-0.053176 
3252.727398  	-0.053328 
3254.159057  	-0.053234 
3255.590715  	-0.053321 
3257.022373  	-0.053221 
3258.454031  	-0.052996 
3259.885689  	-0.053161 
3261.317347  	-0.053449 
3262.749006  	-0.053393 
3264.180664  	-0.052921 
3265.612322  	-0.052751 
3267.043980  	-0.053181 
3268.475638  	-0.053362 
3269.907297  	-0.053250 
3271.338955  	-0.053159 
3272.770613  	-0.053049 
3274.202271  	-0.053262 
3275.633929  	-0.053383 
3277.065587  	-0.053126 
3278.497246  	-0.053195 
3279.928904  	-0.053421 
3281.360562  	-0.053516 
3282.792220  	-0.053509 
3284.223878  	-0.053187 
3285.655537  	-0.053084 
3287.087195  	-0.053234 
3288.518853  	-0.053109 
3289.950511  	-0.053149 
3291.382169  	-0.053287 
3292.813828  	-0.053244 
3294.245486  	-0.053389 
3295.677144  	-0.053371 
3297.108802  	-0.053194 
3298.540460  	-0.053390 
3299.972118  	-0.053547 
3301.403777  	-0.053451 
3302.835435  	-0.053402 
3304.267093  	-0.053332 
3305.698751  	-0.053255 
3307.130409  	-0.053383 
3308.562068  	-0.053717 
3309.993726  	-0.053943 
3311.425384  	-0.053945 
3312.857042  	-0.053926 
3314.288700  	-0.053862 
3315.720359  	-0.053846 
3317.152017  	-0.053886 
3318.583675  	-0.053700 
3320.015333  	-0.053526 
3321.446991  	-0.053407 
3322.878649  	-0.053229 
3324.310308  	-0.053478 
3325.741966  	-0.053875 
3327.173624  	-0.053836 
3328.605282  	-0.053738 
3330.036940  	-0.053749 
3331.468599  	-0.053710 
3332.900257  	-0.053571 
3334.331915  	-0.053456 
3335.763573  	-0.053713 
3337.195231  	-0.053898 
3338.626889  	-0.053612 
3340.058548  	-0.053578 
3341.490206  	-0.053975 
3342.921864  	-0.054195 
3344.353522  	-0.054001 
3345.785180  	-0.053774 
3347.216839  	-0.053976 
3348.648497  	-0.054071 
3350.080155  	-0.053621 
3351.511813  	-0.053399 
3352.943471  	-0.053663 
3354.375130  	-0.053921 
3355.806788  	-0.053978 
3357.238446  	-0.053840 
3358.670104  	-0.053737 
3360.101762  	-0.053824 
3361.533420  	-0.054025 
3362.965079  	-0.054104 
3364.396737  	-0.053932 
3365.828395  	-0.053949 
3367.260053  	-0.054009 
3368.691711  	-0.053682 
3370.123370  	-0.053665 
3371.555028  	-0.053916 
3372.986686  	-0.053835 
3374.418344  	-0.053877 
3375.850002  	-0.053921 
3377.281660  	-0.053733 
3378.713319  	-0.053801 
3380.144977  	-0.053973 
3381.576635  	-0.054070 
3383.008293  	-0.054017 
3384.439951  	-0.053858 
3385.871610  	-0.054204 
3387.303268  	-0.054536 
3388.734926  	-0.054282 
3390.166584  	-0.054135 
3391.598242  	-0.054045 
3393.029901  	-0.053834 
3394.461559  	-0.053769 
3395.893217  	-0.053653 
3397.324875  	-0.053712 
3398.756533  	-0.053889 
3400.188191  	-0.053784 
3401.619850  	-0.053820 
3403.051508  	-0.054006 
3404.483166  	-0.054082 
3405.914824  	-0.054080 
3407.346482  	-0.053952 
3408.778141  	-0.054080 
3410.209799  	-0.054200 
3411.641457  	-0.054000 
3413.073115  	-0.054194 
3414.504773  	-0.054373 
3415.936432  	-0.054186 
3417.368090  	-0.054320 
3418.799748  	-0.054239 
3420.231406  	-0.053875 
3421.663064  	-0.053931 
3423.094722  	-0.053867 
3424.526381  	-0.053706 
3425.958039  	-0.053858 
3427.389697  	-0.053898 
3428.821355  	-0.053785 
3430.253013  	-0.053725 
3431.684672  	-0.053817 
3433.116330  	-0.053902 
3434.547988  	-0.053749 
3435.979646  	-0.053781 
3437.411304  	-0.053907 
3438.842962  	-0.053857 
3440.274621  	-0.053924 
3441.706279  	-0.053723 
3443.137937  	-0.053426 
3444.569595  	-0.053587 
3446.001253  	-0.053620 
3447.432912  	-0.053754 
3448.864570  	-0.054106 
3450.296228  	-0.053950 
3451.727886  	-0.053915 
3453.159544  	-0.054008 
3454.591203  	-0.053632 
3456.022861  	-0.053507 
3457.454519  	-0.053492 
3458.886177  	-0.053125 
3460.317835  	-0.053160 
3461.749493  	-0.053514 
3463.181152  	-0.053504 
3464.612810  	-0.053356 
3466.044468  	-0.053608 
3467.476126  	-0.053929 
3468.907784  	-0.053619 
3470.339443  	-0.053391 
3471.771101  	-0.053637 
3473.202759  	-0.053375 
3474.634417  	-0.052975 
3476.066075  	-0.053151 
3477.497734  	-0.053300 
3478.929392  	-0.053303 
3480.361050  	-0.053304 
3481.792708  	-0.053298 
3483.224366  	-0.053371 
3484.656024  	-0.053247 
3486.087683  	-0.053191 
3487.519341  	-0.053401 
3488.950999  	-0.053351 
3490.382657  	-0.053257 
3491.814315  	-0.053306 
3493.245974  	-0.053156 
3494.677632  	-0.053111 
3496.109290  	-0.053250 
3497.540948  	-0.053044 
3498.972606  	-0.052598 
3500.404264  	-0.052540 
3501.835923  	-0.052864 
3503.267581  	-0.052894 
3504.699239  	-0.052544 
3506.130897  	-0.052328 
3507.562555  	-0.052380 
3508.994214  	-0.052583 
3510.425872  	-0.052431 
3511.857530  	-0.052009 
3513.289188  	-0.052038 
3514.720846  	-0.052211 
3516.152505  	-0.052215 
3517.584163  	-0.052154 
3519.015821  	-0.051786 
3520.447479  	-0.051449 
3521.879137  	-0.051368 
3523.310795  	-0.051382 
3524.742454  	-0.051563 
3526.174112  	-0.051200 
3527.605770  	-0.050610 
3529.037428  	-0.050888 
3530.469086  	-0.051160 
3531.900745  	-0.051164 
3533.332403  	-0.051362 
3534.764061  	-0.051246 
3536.195719  	-0.051351 
3537.627377  	-0.051592 
3539.059035  	-0.051127 
3540.490694  	-0.051124 
3541.922352  	-0.051512 
3543.354010  	-0.051110 
3544.785668  	-0.050813 
3546.217326  	-0.051253 
3547.648985  	-0.051735 
3549.080643  	-0.051939 
3550.512301  	-0.051877 
3551.943959  	-0.051817 
3553.375617  	-0.051827 
3554.807276  	-0.052050 
3556.238934  	-0.052494 
3557.670592  	-0.052449 
3559.102250  	-0.052172 
3560.533908  	-0.052262 
3561.965566  	-0.052304 
3563.397225  	-0.052174 
3564.828883  	-0.051632 
3566.260541  	-0.051038 
3567.692199  	-0.051837 
3569.123857  	-0.052435 
3570.555516  	-0.052003 
3571.987174  	-0.052078 
3573.418832  	-0.052119 
3574.850490  	-0.051768 
3576.282148  	-0.051835 
3577.713807  	-0.052290 
3579.145465  	-0.052917 
3580.577123  	-0.053208 
3582.008781  	-0.052870 
3583.440439  	-0.052629 
3584.872097  	-0.052389 
3586.303756  	-0.052099 
3587.735414  	-0.052775 
3589.167072  	-0.053768 
3590.598730  	-0.053735 
3592.030388  	-0.053491 
3593.462047  	-0.053332 
3594.893705  	-0.053091 
3596.325363  	-0.053283 
3597.757021  	-0.053839 
3599.188679  	-0.053784 
3600.620337  	-0.053731 
3602.051996  	-0.054292 
3603.483654  	-0.054135 
3604.915312  	-0.053839 
3606.346970  	-0.054229 
3607.778628  	-0.054177 
3609.210287  	-0.054259 
3610.641945  	-0.054586 
3612.073603  	-0.053710 
3613.505261  	-0.053400 
3614.936919  	-0.054242 
3616.368578  	-0.053877 
3617.800236  	-0.053158 
3619.231894  	-0.053487 
3620.663552  	-0.054485 
3622.095210  	-0.054775 
3623.526868  	-0.054295 
3624.958527  	-0.054032 
3626.390185  	-0.053474 
3627.821843  	-0.052121 
3629.253501  	-0.052577 
3630.685159  	-0.054413 
3632.116818  	-0.053861 
3633.548476  	-0.053529 
3634.980134  	-0.053746 
3636.411792  	-0.053989 
3637.843450  	-0.054482 
3639.275109  	-0.054319 
3640.706767  	-0.053710 
3642.138425  	-0.053675 
3643.570083  	-0.053709 
3645.001741  	-0.053432 
3646.433399  	-0.052891 
3647.865058  	-0.052272 
3649.296716  	-0.052089 
3650.728374  	-0.052611 
3652.160032  	-0.053877 
3653.591690  	-0.053603 
3655.023349  	-0.052289 
3656.455007  	-0.052377 
3657.886665  	-0.053468 
3659.318323  	-0.053072 
3660.749981  	-0.052876 
3662.181639  	-0.053172 
3663.613298  	-0.053099 
3665.044956  	-0.052935 
3666.476614  	-0.052592 
3667.908272  	-0.052047 
3669.339930  	-0.051669 
3670.771589  	-0.051873 
3672.203247  	-0.051998 
3673.634905  	-0.051205 
3675.066563  	-0.050917 
3676.498221  	-0.052912 
3677.929880  	-0.053005 
3679.361538  	-0.052993 
3680.793196  	-0.053843 
3682.224854  	-0.053642 
3683.656512  	-0.053297 
3685.088170  	-0.053114 
3686.519829  	-0.052421 
3687.951487  	-0.052760 
3689.383145  	-0.054212 
3690.814803  	-0.054143 
3692.246461  	-0.054373 
3693.678120  	-0.054812 
3695.109778  	-0.054352 
3696.541436  	-0.054076 
3697.973094  	-0.054159 
3699.404752  	-0.053892 
3700.836411  	-0.053926 
3702.268069  	-0.054646 
3703.699727  	-0.054825 
3705.131385  	-0.054584 
3706.563043  	-0.054551 
3707.994701  	-0.054224 
3709.426360  	-0.053639 
3710.858018  	-0.053501 
3712.289676  	-0.054120 
3713.721334  	-0.055279 
3715.152992  	-0.055469 
3716.584651  	-0.054749 
3718.016309  	-0.054645 
3719.447967  	-0.054886 
3720.879625  	-0.054185 
3722.311283  	-0.053769 
3723.742941  	-0.054389 
3725.174600  	-0.054583 
3726.606258  	-0.054540 
3728.037916  	-0.054914 
3729.469574  	-0.054758 
3730.901232  	-0.054239 
3732.332891  	-0.054187 
3733.764549  	-0.053699 
3735.196207  	-0.053031 
3736.627865  	-0.055275 
3738.059523  	-0.056603 
3739.491182  	-0.055617 
3740.922840  	-0.055349 
3742.354498  	-0.054725 
3743.786156  	-0.053595 
3745.217814  	-0.055822 
3746.649472  	-0.056150 
3748.081131  	-0.054463 
3749.512789  	-0.054940 
3750.944447  	-0.055694 
3752.376105  	-0.055235 
3753.807763  	-0.056147 
3755.239422  	-0.055874 
3756.671080  	-0.055233 
3758.102738  	-0.055611 
3759.534396  	-0.055781 
3760.966054  	-0.056014 
3762.397712  	-0.056030 
3763.829371  	-0.055062 
3765.261029  	-0.054551 
3766.692687  	-0.055054 
3768.124345  	-0.055109 
3769.556003  	-0.055128 
3770.987662  	-0.055631 
3772.419320  	-0.055957 
3773.850978  	-0.055833 
3775.282636  	-0.055453 
3776.714294  	-0.055297 
3778.145953  	-0.055259 
3779.577611  	-0.055238 
3781.009269  	-0.055465 
3782.440927  	-0.055302 
3783.872585  	-0.054823 
3785.304243  	-0.054782 
3786.735902  	-0.055224 
3788.167560  	-0.055499 
3789.599218  	-0.055291 
3791.030876  	-0.055111 
3792.462534  	-0.055517 
3793.894193  	-0.055656 
3795.325851  	-0.055085 
3796.757509  	-0.054812 
3798.189167  	-0.054888 
3799.620825  	-0.054242 
3801.052484  	-0.053996 
3802.484142  	-0.055895 
3803.915800  	-0.055905 
3805.347458  	-0.054432 
3806.779116  	-0.054655 
3808.210774  	-0.056309 
3809.642433  	-0.055844 
3811.074091  	-0.055234 
3812.505749  	-0.055232 
3813.937407  	-0.054749 
3815.369065  	-0.054397 
3816.800724  	-0.055263 
3818.232382  	-0.055017 
3819.664040  	-0.053869 
3821.095698  	-0.054479 
3822.527356  	-0.056595 
3823.959014  	-0.055616 
3825.390673  	-0.054600 
3826.822331  	-0.055093 
3828.253989  	-0.055314 
3829.685647  	-0.054698 
3831.117305  	-0.054485 
3832.548964  	-0.054791 
3833.980622  	-0.055125 
3835.412280  	-0.054944 
3836.843938  	-0.054506 
3838.275596  	-0.054864 
3839.707255  	-0.055258 
3841.138913  	-0.054936 
3842.570571  	-0.054883 
3844.002229  	-0.055213 
3845.433887  	-0.055336 
3846.865545  	-0.054879 
3848.297204  	-0.054490 
3849.728862  	-0.054544 
3851.160520  	-0.054047 
3852.592178  	-0.053339 
3854.023836  	-0.054961 
3855.455495  	-0.055828 
3856.887153  	-0.055311 
3858.318811  	-0.055372 
3859.750469  	-0.055123 
3861.182127  	-0.054785 
3862.613786  	-0.054587 
3864.045444  	-0.054065 
3865.477102  	-0.054608 
3866.908760  	-0.055185 
3868.340418  	-0.053994 
3869.772076  	-0.053494 
3871.203735  	-0.055139 
3872.635393  	-0.054802 
3874.067051  	-0.054102 
3875.498709  	-0.054676 
3876.930367  	-0.054639 
3878.362026  	-0.054084 
3879.793684  	-0.054170 
3881.225342  	-0.054906 
3882.657000  	-0.054976 
3884.088658  	-0.053967 
3885.520316  	-0.053334 
3886.951975  	-0.054815 
3888.383633  	-0.055078 
3889.815291  	-0.053970 
3891.246949  	-0.054116 
3892.678607  	-0.055373 
3894.110266  	-0.055297 
3895.541924  	-0.054766 
3896.973582  	-0.054204 
3898.405240  	-0.053707 
3899.836898  	-0.053765 
3901.268557  	-0.053741 
3902.700215  	-0.053567 
3904.131873  	-0.054122 
3905.563531  	-0.054913 
3906.995189  	-0.055053 
3908.426847  	-0.054816 
3909.858506  	-0.054763 
3911.290164  	-0.055122 
3912.721822  	-0.055323 
3914.153480  	-0.054971 
3915.585138  	-0.054376 
3917.016797  	-0.053942 
3918.448455  	-0.054131 
3919.880113  	-0.054479 
3921.311771  	-0.054501 
3922.743429  	-0.054412 
3924.175088  	-0.054459 
3925.606746  	-0.054720 
3927.038404  	-0.054732 
3928.470062  	-0.054519 
3929.901720  	-0.054612 
3931.333378  	-0.054542 
3932.765037  	-0.054398 
3934.196695  	-0.055077 
3935.628353  	-0.055355 
3937.060011  	-0.054900 
3938.491669  	-0.054877 
3939.923328  	-0.054831 
3941.354986  	-0.054186 
3942.786644  	-0.053819 
3944.218302  	-0.054090 
3945.649960  	-0.054400 
3947.081618  	-0.054604 
3948.513277  	-0.054961 
3949.944935  	-0.055331 
3951.376593  	-0.055237 
3952.808251  	-0.054967 
3954.239909  	-0.054813 
3955.671568  	-0.054687 
3957.103226  	-0.054886 
3958.534884  	-0.055167 
3959.966542  	-0.055021 
3961.398200  	-0.054870 
3962.829859  	-0.054959 
3964.261517  	-0.055022 
3965.693175  	-0.054923 
3967.124833  	-0.054777 
3968.556491  	-0.054887 
3969.988149  	-0.054965 
3971.419808  	-0.054817 
3972.851466  	-0.054934 
3974.283124  	-0.054991 
3975.714782  	-0.054658 
3977.146440  	-0.054472 
3978.578099  	-0.054531 
3980.009757  	-0.054752 
3981.441415  	-0.054855 
3982.873073  	-0.054329 
3984.304731  	-0.053855 
3985.736389  	-0.054140 
3987.168048  	-0.054485 
3988.599706  	-0.054342 
3990.031364  	-0.054279 
3991.463022  	-0.054614 
3992.894680  	-0.054738 
3994.326339  	-0.054748 
3995.757997  	-0.055066 
3997.189655  	-0.054966 
3998.621313  	-0.054573 
4000.052971  	-0.054678 