##TITLE=No Description
##DATA TYPE=INFRARED SPECTRUM
##XUNITS=1/CM
##YUNITS=%T
399.432634  	92.975258 
400.864292  	88.565812 
402.295950  	88.643673 
403.727608  	86.387787 
405.159267  	82.368761 
406.590925  	84.795509 
408.022583  	87.923696 
409.454241  	85.854917 
410.885899  	84.517783 
412.317558  	89.881750 
413.749216  	98.255365 
415.180874  	97.025467 
416.612532  	92.313160 
418.044190  	95.523727 
419.475848  	98.411962 
420.907507  	95.596141 
422.339165  	94.912921 
423.770823  	91.273931 
425.202481  	89.590648 
426.634139  	93.813170 
428.065798  	96.509991 
429.497456  	95.683067 
430.929114  	94.719981 
432.360772  	94.026780 
433.792430  	94.121131 
435.224089  	95.350774 
436.655747  	96.144900 
438.087405  	94.530267 
439.519063  	93.640679 
440.950721  	94.594392 
442.382379  	92.898382 
443.814038  	90.728620 
445.245696  	93.300448 
446.677354  	95.492945 
448.109012  	94.015340 
449.540670  	92.904662 
450.972329  	92.960429 
452.403987  	93.431557 
453.835645  	94.111141 
455.267303  	94.704769 
456.698961  	95.334106 
458.130619  	94.792813 
459.562278  	94.314817 
460.993936  	94.904522 
462.425594  	94.942486 
463.857252  	94.632853 
465.288910  	93.978358 
466.720569  	92.306527 
468.152227  	91.330917 
469.583885  	91.171825 
471.015543  	91.045268 
472.447201  	91.766060 
473.878860  	91.774520 
475.310518  	91.408229 
476.742176  	92.541180 
478.173834  	92.902153 
479.605492  	91.514850 
481.037150  	90.751160 
482.468809  	90.532411 
483.900467  	89.889168 
485.332125  	89.184823 
486.763783  	88.121007 
488.195441  	87.362475 
489.627100  	88.307796 
491.058758  	89.276534 
492.490416  	88.585298 
493.922074  	88.484597 
495.353732  	89.202067 
496.785391  	88.876081 
498.217049  	88.423788 
499.648707  	88.944262 
501.080365  	89.657744 
502.512023  	89.834220 
503.943681  	89.135002 
505.375340  	88.458939 
506.806998  	88.585595 
508.238656  	88.910303 
509.670314  	89.145176 
511.101972  	89.255678 
512.533631  	88.722193 
513.965289  	88.253568 
515.396947  	88.592995 
516.828605  	89.134643 
518.260263  	88.987634 
519.691921  	88.073457 
521.123580  	87.290646 
522.555238  	87.187920 
523.986896  	86.973977 
525.418554  	85.997386 
526.850212  	84.991585 
528.281871  	84.780601 
529.713529  	84.602275 
531.145187  	83.501071 
532.576845  	82.066346 
534.008503  	81.161240 
535.440162  	80.515629 
536.871820  	79.737813 
538.303478  	78.799648 
539.735136  	77.836263 
541.166794  	76.830951 
542.598452  	75.682922 
544.030111  	74.823172 
545.461769  	74.147662 
546.893427  	72.833834 
548.325085  	71.264080 
549.756743  	70.274436 
551.188402  	69.752205 
552.620060  	69.380224 
554.051718  	69.304059 
555.483376  	70.044638 
556.915034  	71.372132 
558.346692  	72.659723 
559.778351  	74.054773 
561.210009  	75.505573 
562.641667  	76.853101 
564.073325  	78.629917 
565.504983  	81.225381 
566.936642  	84.630819 
568.368300  	88.198465 
569.799958  	90.810062 
571.231616  	92.069853 
572.663274  	92.071547 
574.094933  	91.467282 
575.526591  	91.021855 
576.958249  	90.713728 
578.389907  	90.561686 
579.821565  	90.832596 
581.253223  	91.308643 
582.684882  	91.834428 
584.116540  	92.313891 
585.548198  	92.559844 
586.979856  	92.962176 
588.411514  	93.517980 
589.843173  	93.777475 
591.274831  	94.047487 
592.706489  	94.401946 
594.138147  	94.478822 
595.569805  	94.594097 
597.001464  	94.904228 
598.433122  	95.010466 
599.864780  	94.811382 
601.296438  	94.709053 
602.728096  	94.965187 
604.159754  	95.272613 
605.591413  	95.423436 
607.023071  	95.430850 
608.454729  	95.282744 
609.886387  	95.360822 
611.318045  	95.717604 
612.749704  	95.839018 
614.181362  	95.804569 
615.613020  	95.815871 
617.044678  	95.842489 
618.476336  	95.957860 
619.907994  	95.815828 
621.339653  	95.508426 
622.771311  	95.555506 
624.202969  	95.539831 
625.634627  	95.268704 
627.066285  	95.094610 
628.497944  	94.752010 
629.929602  	94.263558 
631.361260  	93.973993 
632.792918  	93.870421 
634.224576  	93.935660 
635.656235  	94.019660 
637.087893  	94.147743 
638.519551  	94.520320 
639.951209  	94.977785 
641.382867  	95.398397 
642.814525  	95.559924 
644.246184  	95.293849 
645.677842  	95.092259 
647.109500  	94.919014 
648.541158  	94.472714 
649.972816  	94.229021 
651.404475  	94.007415 
652.836133  	93.459471 
654.267791  	93.159003 
655.699449  	93.306729 
657.131107  	93.598269 
658.562766  	93.763366 
659.994424  	93.761334 
661.426082  	93.880557 
662.857740  	94.087377 
664.289398  	94.105626 
665.721056  	93.901480 
667.152715  	93.210662 
668.584373  	92.589698 
670.016031  	93.263239 
671.447689  	93.594986 
672.879347  	93.495107 
674.311006  	93.276766 
675.742664  	93.062193 
677.174322  	92.957340 
678.605980  	92.842511 
680.037638  	92.621042 
681.469296  	92.379567 
682.900955  	91.844293 
684.332613  	91.153214 
685.764271  	90.706014 
687.195929  	90.283760 
688.627587  	90.111686 
690.059246  	90.406042 
691.490904  	90.557135 
692.922562  	90.492095 
694.354220  	90.334596 
695.785878  	89.904538 
697.217537  	89.448985 
698.649195  	89.027094 
700.080853  	88.318757 
701.512511  	87.468716 
702.944169  	86.778472 
704.375827  	86.319056 
705.807486  	86.089757 
707.239144  	86.124902 
708.670802  	86.394752 
710.102460  	86.732811 
711.534118  	87.173037 
712.965777  	87.675451 
714.397435  	88.013079 
715.829093  	88.259050 
717.260751  	88.536683 
718.692409  	88.823674 
720.124067  	88.965322 
721.555726  	88.698161 
722.987384  	88.208788 
724.419042  	87.817058 
725.850700  	87.469322 
727.282358  	87.214653 
728.714017  	87.162689 
730.145675  	87.166680 
731.577333  	87.123995 
733.008991  	87.133496 
734.440649  	87.345698 
735.872308  	87.596420 
737.303966  	87.618020 
738.735624  	87.518194 
740.167282  	87.288973 
741.598940  	86.873511 
743.030598  	86.482511 
744.462257  	85.961819 
745.893915  	85.205342 
747.325573  	84.498031 
748.757231  	83.717263 
750.188889  	82.815843 
751.620548  	82.091446 
753.052206  	81.465880 
754.483864  	80.845209 
755.915522  	80.249381 
757.347180  	79.663898 
758.778839  	79.335331 
760.210497  	79.304592 
761.642155  	79.264022 
763.073813  	79.125970 
764.505471  	79.050662 
765.937129  	79.094344 
767.368788  	79.170339 
768.800446  	79.433483 
770.232104  	80.091906 
771.663762  	81.026919 
773.095420  	82.208760 
774.527079  	83.595504 
775.958737  	84.959171 
777.390395  	86.162257 
778.822053  	87.024682 
780.253711  	87.604580 
781.685369  	88.148476 
783.117028  	88.580722 
784.548686  	88.904660 
785.980344  	89.149713 
787.412002  	89.223393 
788.843660  	89.343667 
790.275319  	89.417745 
791.706977  	89.216086 
793.138635  	89.075806 
794.570293  	88.834375 
796.001951  	88.171899 
797.433610  	87.502574 
798.865268  	86.735359 
800.296926  	85.538963 
801.728584  	84.140662 
803.160242  	82.490067 
804.591900  	80.679207 
806.023559  	79.093839 
807.455217  	77.605560 
808.886875  	76.085842 
810.318533  	74.699942 
811.750191  	73.711792 
813.181850  	73.185034 
814.613508  	72.865895 
816.045166  	72.916857 
817.476824  	73.348214 
818.908482  	73.563408 
820.340141  	73.444450 
821.771799  	73.040977 
823.203457  	72.141704 
824.635115  	70.908929 
826.066773  	69.661752 
827.498431  	68.824923 
828.930090  	68.822082 
830.361748  	69.549984 
831.793406  	70.789056 
833.225064  	72.415449 
834.656722  	74.312314 
836.088381  	76.354217 
837.520039  	78.286051 
838.951697  	79.943146 
840.383355  	81.299281 
841.815013  	82.386547 
843.246671  	83.394145 
844.678330  	84.478668 
846.109988  	85.645191 
847.541646  	86.901503 
848.973304  	88.251595 
850.404962  	89.669683 
851.836621  	91.074559 
853.268279  	92.348269 
854.699937  	93.444617 
856.131595  	94.390151 
857.563253  	95.178900 
858.994912  	95.747409 
860.426570  	96.107205 
861.858228  	96.333236 
863.289886  	96.407506 
864.721544  	96.294498 
866.153202  	96.038298 
867.584861  	95.633935 
869.016519  	95.074483 
870.448177  	94.452352 
871.879835  	93.757229 
873.311493  	92.953340 
874.743152  	92.078372 
876.174810  	91.049725 
877.606468  	89.908739 
879.038126  	88.829052 
880.469784  	87.766767 
881.901443  	86.695234 
883.333101  	85.703436 
884.764759  	84.918502 
886.196417  	84.523903 
887.628075  	84.605799 
889.059733  	85.295564 
890.491392  	86.695050 
891.923050  	88.695378 
893.354708  	91.013711 
894.786366  	93.104672 
896.218024  	94.640141 
897.649683  	95.729246 
899.081341  	96.377852 
900.512999  	96.572280 
901.944657  	96.579247 
903.376315  	96.567166 
904.807973  	96.498513 
906.239632  	96.323578 
907.671290  	96.063225 
909.102948  	95.835526 
910.534606  	95.589923 
911.966264  	95.202769 
913.397923  	94.754820 
914.829581  	94.305112 
916.261239  	93.927956 
917.692897  	93.709290 
919.124555  	93.572579 
920.556214  	93.569528 
921.987872  	93.772090 
923.419530  	94.088648 
924.851188  	94.457971 
926.282846  	94.692363 
927.714504  	94.642405 
929.146163  	94.437345 
930.577821  	94.084851 
932.009479  	93.592217 
933.441137  	93.160772 
934.872795  	92.856513 
936.304454  	92.683357 
937.736112  	92.575770 
939.167770  	92.402171 
940.599428  	92.251685 
942.031086  	92.167242 
943.462744  	92.068638 
944.894403  	92.070419 
946.326061  	92.227505 
947.757719  	92.413666 
949.189377  	92.574403 
950.621035  	92.672631 
952.052694  	92.652474 
953.484352  	92.471251 
954.916010  	92.085202 
956.347668  	91.600955 
957.779326  	91.188369 
959.210985  	90.896789 
960.642643  	90.758313 
962.074301  	90.758085 
963.505959  	90.749611 
964.937617  	90.705304 
966.369275  	90.695023 
967.800934  	90.645226 
969.232592  	90.569074 
970.664250  	90.536247 
972.095908  	90.401876 
973.527566  	90.147880 
974.959225  	89.907633 
976.390883  	89.620837 
977.822541  	89.259151 
979.254199  	88.858010 
980.685857  	88.356257 
982.117516  	87.757037 
983.549174  	87.053164 
984.980832  	86.226294 
986.412490  	85.293512 
987.844148  	84.192354 
989.275806  	83.020579 
990.707465  	81.928331 
992.139123  	80.940720 
993.570781  	80.208814 
995.002439  	79.635346 
996.434097  	78.951659 
997.865756  	78.108610 
999.297414  	76.813070 
1000.729072  	74.860176 
1002.160730  	72.543621 
1003.592388  	70.264782 
1005.024046  	68.626672 
1006.455705  	67.817044 
1007.887363  	67.371952 
1009.319021  	66.905416 
1010.750679  	65.549334 
1012.182337  	62.887667 
1013.613996  	60.987584 
1015.045654  	62.602595 
1016.477312  	67.989519 
1017.908970  	74.867775 
1019.340628  	81.117945 
1020.772287  	85.945830 
1022.203945  	89.352830 
1023.635603  	91.879077 
1025.067261  	93.815520 
1026.498919  	94.958616 
1027.930577  	95.322098 
1029.362236  	95.212649 
1030.793894  	94.770942 
1032.225552  	94.095421 
1033.657210  	93.415735 
1035.088868  	92.941879 
1036.520527  	92.821098 
1037.952185  	92.930816 
1039.383843  	92.987683 
1040.815501  	92.918975 
1042.247159  	92.733470 
1043.678818  	92.408961 
1045.110476  	92.038915 
1046.542134  	91.699682 
1047.973792  	91.317240 
1049.405450  	90.864326 
1050.837108  	90.477685 
1052.268767  	90.140330 
1053.700425  	89.695141 
1055.132083  	89.257757 
1056.563741  	88.888333 
1057.995399  	88.407365 
1059.427058  	87.830812 
1060.858716  	87.228078 
1062.290374  	86.619505 
1063.722032  	86.003968 
1065.153690  	85.226157 
1066.585348  	84.325016 
1068.017007  	83.340843 
1069.448665  	82.082690 
1070.880323  	80.618824 
1072.311981  	78.933737 
1073.743639  	76.782781 
1075.175298  	74.028288 
1076.606956  	70.552676 
1078.038614  	67.182213 
1079.470272  	65.507474 
1080.901930  	66.234154 
1082.333589  	69.198661 
1083.765247  	73.407662 
1085.196905  	77.682145 
1086.628563  	81.218649 
1088.060221  	83.457601 
1089.491879  	84.400159 
1090.923538  	84.362965 
1092.355196  	83.652200 
1093.786854  	82.634114 
1095.218512  	81.365761 
1096.650170  	79.737374 
1098.081829  	78.027594 
1099.513487  	76.467205 
1100.945145  	75.371102 
1102.376803  	75.074665 
1103.808461  	75.250757 
1105.240120  	75.545261 
1106.671778  	75.700393 
1108.103436  	75.600136 
1109.535094  	75.650424 
1110.966752  	75.955748 
1112.398410  	76.329104 
1113.830069  	76.758372 
1115.261727  	77.078437 
1116.693385  	77.245026 
1118.125043  	77.224435 
1119.556701  	76.895048 
1120.988360  	76.451277 
1122.420018  	75.915330 
1123.851676  	75.217896 
1125.283334  	74.493144 
1126.714992  	73.602195 
1128.146650  	72.625588 
1129.578309  	71.731820 
1131.009967  	70.702560 
1132.441625  	69.665462 
1133.873283  	68.662093 
1135.304941  	67.519607 
1136.736600  	66.425510 
1138.168258  	65.247783 
1139.599916  	63.906677 
1141.031574  	62.616660 
1142.463232  	61.256859 
1143.894891  	59.916565 
1145.326549  	58.604263 
1146.758207  	57.199184 
1148.189865  	55.962871 
1149.621523  	54.725730 
1151.053181  	53.450710 
1152.484840  	52.396951 
1153.916498  	51.335665 
1155.348156  	50.517467 
1156.779814  	50.099675 
1158.211472  	49.837057 
1159.643131  	50.155763 
1161.074789  	51.101028 
1162.506447  	52.547382 
1163.938105  	54.688104 
1165.369763  	57.262106 
1166.801421  	60.230298 
1168.233080  	63.312953 
1169.664738  	65.759364 
1171.096396  	67.195663 
1172.528054  	67.141711 
1173.959712  	65.462632 
1175.391371  	62.985654 
1176.823029  	60.475839 
1178.254687  	58.400142 
1179.686345  	56.785163 
1181.118003  	55.140694 
1182.549662  	53.598712 
1183.981320  	52.307594 
1185.412978  	51.367363 
1186.844636  	51.242099 
1188.276294  	51.616608 
1189.707952  	52.371725 
1191.139611  	53.695194 
1192.571269  	55.090343 
1194.002927  	56.640818 
1195.434585  	58.519367 
1196.866243  	60.442140 
1198.297902  	62.520539 
1199.729560  	64.655870 
1201.161218  	66.748941 
1202.592876  	68.819705 
1204.024534  	70.422676 
1205.456193  	71.287040 
1206.887851  	71.150701 
1208.319509  	69.674934 
1209.751167  	67.264152 
1211.182825  	64.471498 
1212.614483  	61.770145 
1214.046142  	59.785453 
1215.477800  	58.416280 
1216.909458  	57.605097 
1218.341116  	57.413699 
1219.772774  	57.443181 
1221.204433  	57.764710 
1222.636091  	58.341445 
1224.067749  	58.966470 
1225.499407  	59.786034 
1226.931065  	60.584298 
1228.362723  	61.387648 
1229.794382  	62.357846 
1231.226040  	63.230157 
1232.657698  	64.133851 
1234.089356  	65.074818 
1235.521014  	65.899663 
1236.952673  	66.828005 
1238.384331  	67.703591 
1239.815989  	68.485642 
1241.247647  	69.372292 
1242.679305  	70.220560 
1244.110964  	71.162612 
1245.542622  	72.218896 
1246.974280  	73.259823 
1248.405938  	74.533459 
1249.837596  	75.938034 
1251.269254  	77.429931 
1252.700913  	79.193488 
1254.132571  	81.016874 
1255.564229  	82.969651 
1256.995887  	85.128335 
1258.427545  	87.239554 
1259.859204  	89.385622 
1261.290862  	91.563250 
1262.722520  	93.572103 
1264.154178  	95.404438 
1265.585836  	97.005548 
1267.017495  	98.333640 
1268.449153  	99.435120 
1269.880811  	100.293660 
1271.312469  	100.946870 
1272.744127  	101.443312 
1274.175785  	101.716954 
1275.607444  	101.825950 
1277.039102  	101.883975 
1278.470760  	101.806414 
1279.902418  	101.569616 
1281.334076  	101.271802 
1282.765735  	100.899579 
1284.197393  	100.436327 
1285.629051  	99.965450 
1287.060709  	99.551641 
1288.492367  	99.169963 
1289.924025  	98.866306 
1291.355684  	98.759336 
1292.787342  	98.850727 
1294.219000  	99.126499 
1295.650658  	99.593069 
1297.082316  	100.219614 
1298.513975  	100.951830 
1299.945633  	101.672870 
1301.377291  	102.262939 
1302.808949  	102.721444 
1304.240607  	103.048373 
1305.672266  	103.125721 
1307.103924  	102.969725 
1308.535582  	102.746897 
1309.967240  	102.676863 
1311.398898  	102.923565 
1312.830556  	103.459634 
1314.262215  	104.185341 
1315.693873  	104.936280 
1317.125531  	105.484724 
1318.557189  	105.829598 
1319.988847  	106.099464 
1321.420506  	106.230142 
1322.852164  	106.304340 
1324.283822  	106.387641 
1325.715480  	106.414028 
1327.147138  	106.484474 
1328.578796  	106.558223 
1330.010455  	106.544112 
1331.442113  	106.542794 
1332.873771  	106.546369 
1334.305429  	106.559620 
1335.737087  	106.577765 
1337.168746  	106.512753 
1338.600404  	106.433565 
1340.032062  	106.364549 
1341.463720  	106.338217 
1342.895378  	106.389917 
1344.327037  	106.391231 
1345.758695  	106.363768 
1347.190353  	106.307867 
1348.622011  	106.168975 
1350.053669  	106.142799 
1351.485327  	106.152477 
1352.916986  	106.039818 
1354.348644  	105.907575 
1355.780302  	105.652436 
1357.211960  	105.279654 
1358.643618  	104.671988 
1360.075277  	103.429257 
1361.506935  	101.654763 
1362.938593  	99.754571 
1364.370251  	98.913980 
1365.801909  	99.544845 
1367.233568  	100.990492 
1368.665226  	102.673069 
1370.096884  	104.021689 
1371.528542  	104.773393 
1372.960200  	105.071054 
1374.391858  	105.247447 
1375.823517  	105.300708 
1377.255175  	105.224459 
1378.686833  	105.042121 
1380.118491  	104.696790 
1381.550149  	104.218692 
1382.981808  	103.417927 
1384.413466  	102.497817 
1385.845124  	101.849266 
1387.276782  	101.740977 
1388.708440  	102.287615 
1390.140098  	102.993719 
1391.571757  	103.706034 
1393.003415  	104.167341 
1394.435073  	104.278642 
1395.866731  	104.270303 
1397.298389  	104.150615 
1398.730048  	103.835760 
1400.161706  	103.459573 
1401.593364  	102.962374 
1403.025022  	102.220549 
1404.456680  	101.332314 
1405.888339  	100.332180 
1407.319997  	99.436422 
1408.751655  	98.947227 
1410.183313  	98.852691 
1411.614971  	99.358586 
1413.046629  	100.374247 
1414.478288  	101.465803 
1415.909946  	102.625801 
1417.341604  	103.602454 
1418.773262  	104.300158 
1420.204920  	104.966766 
1421.636579  	105.240066 
1423.068237  	105.363968 
1424.499895  	105.592588 
1425.931553  	105.680883 
1427.363211  	105.689614 
1428.794870  	105.646311 
1430.226528  	105.515447 
1431.658186  	105.533199 
1433.089844  	105.492645 
1434.521502  	105.340267 
1435.953160  	105.227623 
1437.384819  	104.958170 
1438.816477  	104.731035 
1440.248135  	104.452385 
1441.679793  	103.994866 
1443.111451  	103.687198 
1444.543110  	103.393004 
1445.974768  	103.043190 
1447.406426  	102.778031 
1448.838084  	102.388467 
1450.269742  	102.134731 
1451.701400  	102.051293 
1453.133059  	101.927912 
1454.564717  	101.859838 
1455.996375  	101.612566 
1457.428033  	100.814365 
1458.859691  	100.252443 
1460.291350  	99.641392 
1461.723008  	99.119076 
1463.154666  	98.777618 
1464.586324  	98.501193 
1466.017982  	98.674920 
1467.449641  	98.918020 
1468.881299  	99.256102 
1470.312957  	99.700801 
1471.744615  	99.821321 
1473.176273  	100.029215 
1474.607931  	100.282425 
1476.039590  	100.151275 
1477.471248  	100.170327 
1478.902906  	100.082477 
1480.334564  	99.692409 
1481.766222  	99.327644 
1483.197881  	98.716325 
1484.629539  	97.866630 
1486.061197  	96.920900 
1487.492855  	95.487144 
1488.924513  	93.980528 
1490.356172  	92.289190 
1491.787830  	89.854870 
1493.219488  	87.890624 
1494.651146  	85.900770 
1496.082804  	83.127008 
1497.514462  	80.585222 
1498.946121  	78.270208 
1500.377779  	76.216419 
1501.809437  	75.367609 
1503.241095  	75.087150 
1504.672753  	75.429670 
1506.104412  	77.094432 
1507.536070  	79.989576 
1508.967728  	83.524605 
1510.399386  	87.225853 
1511.831044  	90.933738 
1513.262702  	94.578057 
1514.694361  	97.301307 
1516.126019  	99.198839 
1517.557677  	101.321891 
1518.989335  	102.701620 
1520.420993  	103.231522 
1521.852652  	104.190506 
1523.284310  	104.861402 
1524.715968  	105.022751 
1526.147626  	105.443642 
1527.579284  	105.712084 
1529.010943  	105.899866 
1530.442601  	106.208867 
1531.874259  	106.226631 
1533.305917  	106.226364 
1534.737575  	106.501604 
1536.169233  	106.578056 
1537.600892  	106.644254 
1539.032550  	106.615198 
1540.464208  	106.492582 
1541.895866  	106.796719 
1543.327524  	106.851573 
1544.759183  	106.894694 
1546.190841  	107.124278 
1547.622499  	107.127191 
1549.054157  	107.080026 
1550.485815  	107.129923 
1551.917473  	107.150539 
1553.349132  	107.175393 
1554.780790  	107.177450 
1556.212448  	107.159308 
1557.644106  	107.131230 
1559.075764  	107.039880 
1560.507423  	107.353625 
1561.939081  	107.385914 
1563.370739  	107.292256 
1564.802397  	107.316332 
1566.234055  	107.343588 
1567.665714  	107.245475 
1569.097372  	107.174462 
1570.529030  	107.186106 
1571.960688  	107.207650 
1573.392346  	107.149938 
1574.824004  	107.000391 
1576.255663  	106.923831 
1577.687321  	106.909112 
1579.118979  	106.819279 
1580.550637  	106.743591 
1581.982295  	106.587311 
1583.413954  	106.298494 
1584.845612  	105.940619 
1586.277270  	105.493828 
1587.708928  	104.947384 
1589.140586  	104.358377 
1590.572245  	103.887242 
1592.003903  	103.549726 
1593.435561  	103.392844 
1594.867219  	103.426513 
1596.298877  	103.463135 
1597.730535  	103.481696 
1599.162194  	103.434634 
1600.593852  	103.312659 
1602.025510  	103.252521 
1603.457168  	103.298290 
1604.888826  	103.530000 
1606.320485  	103.881164 
1607.752143  	104.315944 
1609.183801  	104.903591 
1610.615459  	105.397921 
1612.047117  	105.779185 
1613.478775  	106.085692 
1614.910434  	106.233498 
1616.342092  	106.341340 
1617.773750  	106.513508 
1619.205408  	106.608006 
1620.637066  	106.645187 
1622.068725  	106.653599 
1623.500383  	106.718100 
1624.932041  	106.805456 
1626.363699  	106.792436 
1627.795357  	106.779689 
1629.227016  	106.783209 
1630.658674  	106.741264 
1632.090332  	106.693700 
1633.521990  	106.586670 
1634.953648  	106.404907 
1636.385306  	106.390278 
1637.816965  	106.436309 
1639.248623  	106.396942 
1640.680281  	106.419322 
1642.111939  	106.408623 
1643.543597  	106.285526 
1644.975256  	106.130470 
1646.406914  	106.006598 
1647.838572  	106.068518 
1649.270230  	106.166574 
1650.701888  	106.109757 
1652.133547  	105.918415 
1653.565205  	105.829259 
1654.996863  	106.136006 
1656.428521  	106.181279 
1657.860179  	106.148757 
1659.291837  	106.168193 
1660.723496  	106.184199 
1662.155154  	106.142796 
1663.586812  	106.148136 
1665.018470  	106.187741 
1666.450128  	106.209793 
1667.881787  	106.198682 
1669.313445  	106.137472 
1670.745103  	106.231436 
1672.176761  	106.338242 
1673.608419  	106.288882 
1675.040077  	106.296239 
1676.471736  	106.380178 
1677.903394  	106.322535 
1679.335052  	106.256155 
1680.766710  	106.215240 
1682.198368  	106.119094 
1683.630027  	105.948517 
1685.061685  	106.059685 
1686.493343  	106.193863 
1687.925001  	106.118874 
1689.356659  	106.045979 
1690.788318  	106.008826 
1692.219976  	105.889306 
1693.651634  	105.740378 
1695.083292  	105.559108 
1696.514950  	105.485373 
1697.946608  	105.493404 
1699.378267  	105.265450 
1700.809925  	105.075464 
1702.241583  	105.094136 
1703.673241  	104.854389 
1705.104899  	104.693874 
1706.536558  	104.641647 
1707.968216  	104.422061 
1709.399874  	104.287694 
1710.831532  	104.142260 
1712.263190  	103.948842 
1713.694849  	103.807947 
1715.126507  	103.463303 
1716.558165  	103.183951 
1717.989823  	103.146212 
1719.421481  	102.864883 
1720.853139  	102.671361 
1722.284798  	102.430139 
1723.716456  	102.040791 
1725.148114  	101.796046 
1726.579772  	101.476667 
1728.011430  	101.090752 
1729.443089  	100.769809 
1730.874747  	100.388327 
1732.306405  	100.177043 
1733.738063  	99.896884 
1735.169721  	99.438427 
1736.601379  	99.354061 
1738.033038  	99.005988 
1739.464696  	98.513857 
1740.896354  	98.183993 
1742.328012  	97.571720 
1743.759670  	96.933970 
1745.191329  	96.279355 
1746.622987  	95.359628 
1748.054645  	94.500858 
1749.486303  	93.346019 
1750.917961  	91.851625 
1752.349620  	90.349268 
1753.781278  	88.515262 
1755.212936  	86.683882 
1756.644594  	84.450332 
1758.076252  	81.376263 
1759.507910  	78.929255 
1760.939569  	76.647773 
1762.371227  	73.667530 
1763.802885  	71.623378 
1765.234543  	70.461084 
1766.666201  	69.430862 
1768.097860  	69.155465 
1769.529518  	69.356109 
1770.961176  	69.734612 
1772.392834  	70.915266 
1773.824492  	72.056324 
1775.256150  	73.325204 
1776.687809  	75.135819 
1778.119467  	76.623045 
1779.551125  	78.225396 
1780.982783  	80.309917 
1782.414441  	82.037839 
1783.846100  	83.947536 
1785.277758  	86.048562 
1786.709416  	87.818117 
1788.141074  	89.920925 
1789.572732  	91.855108 
1791.004391  	93.469013 
1792.436049  	95.783944 
1793.867707  	97.571607 
1795.299365  	98.937454 
1796.731023  	100.592645 
1798.162681  	101.638154 
1799.594340  	102.652305 
1801.025998  	103.701528 
1802.457656  	104.110798 
1803.889314  	104.841376 
1805.320972  	105.425696 
1806.752631  	105.702671 
1808.184289  	106.293265 
1809.615947  	106.505077 
1811.047605  	106.585151 
1812.479263  	106.882410 
1813.910922  	106.906121 
1815.342580  	107.152313 
1816.774238  	107.362311 
1818.205896  	107.311845 
1819.637554  	107.558907 
1821.069212  	107.603083 
1822.500871  	107.575695 
1823.932529  	107.731032 
1825.364187  	107.614520 
1826.795845  	107.723030 
1828.227503  	107.827220 
1829.659162  	107.676812 
1831.090820  	107.870183 
1832.522478  	107.897001 
1833.954136  	107.907029 
1835.385794  	108.086132 
1836.817452  	107.925566 
1838.249111  	107.967627 
1839.680769  	108.106813 
1841.112427  	107.907840 
1842.544085  	108.006794 
1843.975743  	108.173311 
1845.407402  	108.101211 
1846.839060  	108.150241 
1848.270718  	108.032842 
1849.702376  	108.060228 
1851.134034  	108.091034 
1852.565693  	107.926544 
1853.997351  	108.143706 
1855.429009  	108.198728 
1856.860667  	107.967153 
1858.292325  	108.060108 
1859.723983  	107.992816 
1861.155642  	107.949358 
1862.587300  	108.170348 
1864.018958  	108.186189 
1865.450616  	108.231032 
1866.882274  	108.069902 
1868.313933  	107.790984 
1869.745591  	108.094640 
1871.177249  	108.068858 
1872.608907  	107.913580 
1874.040565  	108.069544 
1875.472224  	107.932202 
1876.903882  	107.859638 
1878.335540  	107.953780 
1879.767198  	107.904216 
1881.198856  	108.057327 
1882.630514  	108.019748 
1884.062173  	107.872217 
1885.493831  	107.965960 
1886.925489  	107.727256 
1888.357147  	107.550116 
1889.788805  	107.613012 
1891.220464  	107.441507 
1892.652122  	107.489293 
1894.083780  	107.497467 
1895.515438  	107.320428 
1896.947096  	107.435621 
1898.378754  	107.437043 
1899.810413  	107.416047 
1901.242071  	107.486828 
1902.673729  	107.348740 
1904.105387  	107.422782 
1905.537045  	107.498710 
1906.968704  	107.452629 
1908.400362  	107.692430 
1909.832020  	107.756301 
1911.263678  	107.833831 
1912.695336  	108.093982 
1914.126995  	108.043110 
1915.558653  	108.207949 
1916.990311  	108.378324 
1918.421969  	108.087689 
1919.853627  	108.142141 
1921.285285  	108.160759 
1922.716944  	108.114603 
1924.148602  	108.414996 
1925.580260  	108.315327 
1927.011918  	108.220182 
1928.443576  	108.387071 
1929.875235  	108.351097 
1931.306893  	108.530144 
1932.738551  	108.543546 
1934.170209  	108.308165 
1935.601867  	108.510497 
1937.033525  	108.510632 
1938.465184  	108.323020 
1939.896842  	108.296425 
1941.328500  	108.139879 
1942.760158  	108.292248 
1944.191816  	108.351516 
1945.623475  	108.141931 
1947.055133  	108.293765 
1948.486791  	108.273690 
1949.918449  	108.236008 
1951.350107  	108.295191 
1952.781766  	108.102924 
1954.213424  	108.409513 
1955.645082  	108.509422 
1957.076740  	108.158608 
1958.508398  	108.550960 
1959.940056  	108.435939 
1961.371715  	107.883512 
1962.803373  	108.073313 
1964.235031  	107.903122 
1965.666689  	107.931733 
1967.098347  	108.264602 
1968.530006  	107.848211 
1969.961664  	107.857882 
1971.393322  	107.938155 
1972.824980  	107.864182 
1974.256638  	108.304713 
1975.688297  	107.925099 
1977.119955  	107.517587 
1978.551613  	108.080351 
1979.983271  	108.242620 
1981.414929  	108.245893 
1982.846587  	108.305105 
1984.278246  	108.391082 
1985.709904  	108.600820 
1987.141562  	108.277008 
1988.573220  	108.207516 
1990.004878  	108.379815 
1991.436537  	108.022578 
1992.868195  	108.404618 
1994.299853  	108.841782 
1995.731511  	108.239383 
1997.163169  	107.922319 
1998.594827  	107.999879 
2000.026486  	108.233923 
2001.458144  	108.443469 
2002.889802  	107.933990 
2004.321460  	107.649419 
2005.753118  	107.811741 
2007.184777  	107.833271 
2008.616435  	108.073587 
2010.048093  	108.074930 
2011.479751  	108.026578 
2012.911409  	108.151504 
2014.343068  	107.964666 
2015.774726  	108.239424 
2017.206384  	108.353435 
2018.638042  	107.900554 
2020.069700  	108.087422 
2021.501358  	107.968585 
2022.933017  	107.963440 
2024.364675  	108.669693 
2025.796333  	108.227383 
2027.227991  	107.810782 
2028.659649  	108.248762 
2030.091308  	107.970434 
2031.522966  	107.762728 
2032.954624  	107.865377 
2034.386282  	108.008353 
2035.817940  	108.339815 
2037.249599  	108.070194 
2038.681257  	108.144744 
2040.112915  	108.480409 
2041.544573  	108.023975 
2042.976231  	108.053208 
2044.407889  	108.123786 
2045.839548  	107.698142 
2047.271206  	107.991937 
2048.702864  	108.248809 
2050.134522  	108.207933 
2051.566180  	108.347828 
2052.997839  	108.132019 
2054.429497  	108.078742 
2055.861155  	108.177833 
2057.292813  	108.176538 
2058.724471  	108.640863 
2060.156129  	108.704139 
2061.587788  	108.255738 
2063.019446  	108.415590 
2064.451104  	108.683435 
2065.882762  	108.695039 
2067.314420  	108.705899 
2068.746079  	108.756835 
2070.177737  	108.965906 
2071.609395  	108.791535 
2073.041053  	108.544431 
2074.472711  	108.711435 
2075.904370  	108.556902 
2077.336028  	108.565269 
2078.767686  	109.025093 
2080.199344  	108.924211 
2081.631002  	108.642922 
2083.062660  	108.663084 
2084.494319  	108.740912 
2085.925977  	108.893832 
2087.357635  	108.852785 
2088.789293  	108.742305 
2090.220951  	108.734751 
2091.652610  	108.607581 
2093.084268  	108.681616 
2094.515926  	108.822995 
2095.947584  	108.896247 
2097.379242  	109.219475 
2098.810901  	109.188686 
2100.242559  	108.828935 
2101.674217  	108.721539 
2103.105875  	108.660349 
2104.537533  	108.899029 
2105.969191  	109.226553 
2107.400850  	109.083911 
2108.832508  	109.015644 
2110.264166  	109.003565 
2111.695824  	108.837358 
2113.127482  	108.835171 
2114.559141  	108.853291 
2115.990799  	108.980743 
2117.422457  	109.120805 
2118.854115  	109.012877 
2120.285773  	109.058264 
2121.717431  	109.005654 
2123.149090  	108.826006 
2124.580748  	109.077501 
2126.012406  	109.129047 
2127.444064  	108.826908 
2128.875722  	108.818919 
2130.307381  	108.965237 
2131.739039  	109.158361 
2133.170697  	109.124018 
2134.602355  	108.830025 
2136.034013  	108.875814 
2137.465672  	108.754742 
2138.897330  	108.467598 
2140.328988  	108.661165 
2141.760646  	108.848966 
2143.192304  	108.828435 
2144.623962  	108.592506 
2146.055621  	108.478674 
2147.487279  	109.004456 
2148.918937  	109.037589 
2150.350595  	108.589136 
2151.782253  	108.621337 
2153.213912  	108.541148 
2154.645570  	108.721124 
2156.077228  	108.985761 
2157.508886  	108.542162 
2158.940544  	108.467909 
2160.372202  	108.062859 
2161.803861  	107.688966 
2163.235519  	108.558948 
2164.667177  	108.876621 
2166.098835  	108.625317 
2167.530493  	108.644089 
2168.962152  	108.640171 
2170.393810  	109.171868 
2171.825468  	109.157022 
2173.257126  	108.492120 
2174.688784  	108.671937 
2176.120443  	108.399107 
2177.552101  	107.975482 
2178.983759  	108.577165 
2180.415417  	108.496669 
2181.847075  	108.186602 
2183.278733  	108.540220 
2184.710392  	108.455891 
2186.142050  	108.416057 
2187.573708  	108.434831 
2189.005366  	108.278557 
2190.437024  	108.650546 
2191.868683  	108.737679 
2193.300341  	108.353544 
2194.731999  	108.414962 
2196.163657  	108.683860 
2197.595315  	108.908205 
2199.026974  	108.899994 
2200.458632  	108.629800 
2201.890290  	108.600070 
2203.321948  	108.788880 
2204.753606  	108.981250 
2206.185264  	108.798390 
2207.616923  	108.377224 
2209.048581  	108.533970 
2210.480239  	108.789085 
2211.911897  	108.784784 
2213.343555  	108.936787 
2214.775214  	108.761643 
2216.206872  	108.495470 
2217.638530  	108.572581 
2219.070188  	108.502848 
2220.501846  	108.423468 
2221.933504  	108.400719 
2223.365163  	108.475052 
2224.796821  	108.778832 
2226.228479  	108.558605 
2227.660137  	108.212280 
2229.091795  	108.522483 
2230.523454  	108.696855 
2231.955112  	108.558264 
2233.386770  	108.508602 
2234.818428  	108.527295 
2236.250086  	108.733840 
2237.681745  	108.823554 
2239.113403  	108.700922 
2240.545061  	108.630486 
2241.976719  	108.576843 
2243.408377  	108.778271 
2244.840035  	108.945593 
2246.271694  	108.783907 
2247.703352  	108.853611 
2249.135010  	108.925254 
2250.566668  	108.834745 
2251.998326  	108.938701 
2253.429985  	108.874762 
2254.861643  	108.808134 
2256.293301  	108.890906 
2257.724959  	108.667231 
2259.156617  	108.633210 
2260.588276  	108.942104 
2262.019934  	109.054770 
2263.451592  	109.071353 
2264.883250  	109.097224 
2266.314908  	109.265067 
2267.746566  	109.483553 
2269.178225  	109.357171 
2270.609883  	109.250687 
2272.041541  	109.213386 
2273.473199  	109.087609 
2274.904857  	109.327414 
2276.336516  	109.549315 
2277.768174  	109.448236 
2279.199832  	109.555110 
2280.631490  	109.577008 
2282.063148  	109.295276 
2283.494806  	109.203750 
2284.926465  	109.312436 
2286.358123  	109.374014 
2287.789781  	109.320950 
2289.221439  	109.271746 
2290.653097  	109.308274 
2292.084756  	109.270419 
2293.516414  	109.239049 
2294.948072  	109.280853 
2296.379730  	109.224680 
2297.811388  	109.167778 
2299.243047  	109.140377 
2300.674705  	109.032845 
2302.106363  	108.899011 
2303.538021  	108.779899 
2304.969679  	108.783618 
2306.401337  	108.792999 
2307.832996  	108.608659 
2309.264654  	108.526340 
2310.696312  	108.562631 
2312.127970  	108.450347 
2313.559628  	108.384196 
2314.991287  	108.394430 
2316.422945  	108.328006 
2317.854603  	108.213093 
2319.286261  	107.989795 
2320.717919  	107.792522 
2322.149577  	107.751996 
2323.581236  	107.706490 
2325.012894  	107.646318 
2326.444552  	107.567216 
2327.876210  	107.389620 
2329.307868  	107.180790 
2330.739527  	107.065525 
2332.171185  	107.118427 
2333.602843  	107.229157 
2335.034501  	107.297173 
2336.466159  	107.333904 
2337.897818  	107.224305 
2339.329476  	107.069130 
2340.761134  	107.044600 
2342.192792  	107.024763 
2343.624450  	107.053962 
2345.056108  	107.190348 
2346.487767  	107.432834 
2347.919425  	107.809742 
2349.351083  	107.938765 
2350.782741  	107.612697 
2352.214399  	107.192735 
2353.646058  	107.000010 
2355.077716  	106.841360 
2356.509374  	106.625550 
2357.941032  	106.487940 
2359.372690  	106.498174 
2360.804349  	106.470116 
2362.236007  	106.378585 
2363.667665  	106.492733 
2365.099323  	106.669444 
2366.530981  	106.762211 
2367.962639  	106.926964 
2369.394298  	107.144020 
2370.825956  	107.414660 
2372.257614  	107.642630 
2373.689272  	107.735166 
2375.120930  	107.893014 
2376.552589  	108.074561 
2377.984247  	108.216610 
2379.415905  	108.463026 
2380.847563  	108.720764 
2382.279221  	108.897447 
2383.710879  	109.026725 
2385.142538  	109.123695 
2386.574196  	109.243211 
2388.005854  	109.282106 
2389.437512  	109.208387 
2390.869170  	109.216907 
2392.300829  	109.268803 
2393.732487  	109.268888 
2395.164145  	109.292074 
2396.595803  	109.338438 
2398.027461  	109.367166 
2399.459120  	109.360250 
2400.890778  	109.354666 
2402.322436  	109.340213 
2403.754094  	109.257145 
2405.185752  	109.244200 
2406.617410  	109.277320 
2408.049069  	109.207810 
2409.480727  	109.185827 
2410.912385  	109.183926 
2412.344043  	109.152149 
2413.775701  	109.236045 
2415.207360  	109.233225 
2416.639018  	109.151083 
2418.070676  	109.278344 
2419.502334  	109.398465 
2420.933992  	109.341562 
2422.365651  	109.251197 
2423.797309  	109.211005 
2425.228967  	109.304395 
2426.660625  	109.416042 
2428.092283  	109.432279 
2429.523941  	109.394124 
2430.955600  	109.247704 
2432.387258  	109.191299 
2433.818916  	109.349954 
2435.250574  	109.412403 
2436.682232  	109.320074 
2438.113891  	109.259953 
2439.545549  	109.320201 
2440.977207  	109.425261 
2442.408865  	109.370320 
2443.840523  	109.314185 
2445.272181  	109.407218 
2446.703840  	109.402903 
2448.135498  	109.363442 
2449.567156  	109.433110 
2450.998814  	109.481076 
2452.430472  	109.502804 
2453.862131  	109.488702 
2455.293789  	109.449079 
2456.725447  	109.445572 
2458.157105  	109.401200 
2459.588763  	109.361595 
2461.020422  	109.379862 
2462.452080  	109.438511 
2463.883738  	109.560810 
2465.315396  	109.544563 
2466.747054  	109.386507 
2468.178712  	109.382533 
2469.610371  	109.451902 
2471.042029  	109.449237 
2472.473687  	109.443879 
2473.905345  	109.445601 
2475.337003  	109.473587 
2476.768662  	109.493576 
2478.200320  	109.480575 
2479.631978  	109.498238 
2481.063636  	109.524858 
2482.495294  	109.531621 
2483.926953  	109.456898 
2485.358611  	109.376870 
2486.790269  	109.486497 
2488.221927  	109.567041 
2489.653585  	109.517322 
2491.085243  	109.614449 
2492.516902  	109.709149 
2493.948560  	109.623429 
2495.380218  	109.546829 
2496.811876  	109.552376 
2498.243534  	109.639634 
2499.675193  	109.723983 
2501.106851  	109.726617 
2502.538509  	109.774212 
2503.970167  	109.835994 
2505.401825  	109.777365 
2506.833483  	109.648871 
2508.265142  	109.619957 
2509.696800  	109.731254 
2511.128458  	109.738424 
2512.560116  	109.690979 
2513.991774  	109.816638 
2515.423433  	109.852657 
2516.855091  	109.745935 
2518.286749  	109.749835 
2519.718407  	109.808561 
2521.150065  	109.892337 
2522.581724  	109.892881 
2524.013382  	109.762003 
2525.445040  	109.802553 
2526.876698  	109.929085 
2528.308356  	109.930148 
2529.740014  	109.880256 
2531.171673  	109.787556 
2532.603331  	109.827345 
2534.034989  	109.930505 
2535.466647  	109.859023 
2536.898305  	109.917311 
2538.329964  	110.026072 
2539.761622  	109.894449 
2541.193280  	109.871932 
2542.624938  	109.931015 
2544.056596  	109.836076 
2545.488254  	109.821671 
2546.919913  	109.936588 
2548.351571  	110.034964 
2549.783229  	109.993297 
2551.214887  	109.900615 
2552.646545  	110.033079 
2554.078204  	110.153901 
2555.509862  	110.055762 
2556.941520  	109.992249 
2558.373178  	109.965183 
2559.804836  	109.963701 
2561.236495  	110.021267 
2562.668153  	110.014677 
2564.099811  	110.007778 
2565.531469  	109.966606 
2566.963127  	109.892421 
2568.394785  	109.957056 
2569.826444  	110.023223 
2571.258102  	110.077111 
2572.689760  	110.149600 
2574.121418  	110.017459 
2575.553076  	109.868607 
2576.984735  	109.857714 
2578.416393  	109.842764 
2579.848051  	109.925995 
2581.279709  	110.002679 
2582.711367  	109.938959 
2584.143026  	109.951331 
2585.574684  	110.002678 
2587.006342  	109.992721 
2588.438000  	109.987268 
2589.869658  	109.969612 
2591.301316  	109.958187 
2592.732975  	109.925113 
2594.164633  	109.899198 
2595.596291  	109.979094 
2597.027949  	110.033241 
2598.459607  	110.030743 
2599.891266  	110.062443 
2601.322924  	110.080411 
2602.754582  	110.103011 
2604.186240  	110.091564 
2605.617898  	110.029336 
2607.049556  	110.048761 
2608.481215  	110.075074 
2609.912873  	110.053208 
2611.344531  	110.071656 
2612.776189  	110.082881 
2614.207847  	110.101525 
2615.639506  	110.151303 
2617.071164  	110.153042 
2618.502822  	110.120356 
2619.934480  	110.063061 
2621.366138  	110.024728 
2622.797797  	110.086387 
2624.229455  	110.167206 
2625.661113  	110.192838 
2627.092771  	110.197478 
2628.524429  	110.209224 
2629.956087  	110.208042 
2631.387746  	110.157785 
2632.819404  	110.138976 
2634.251062  	110.202525 
2635.682720  	110.262154 
2637.114378  	110.278318 
2638.546037  	110.229996 
2639.977695  	110.172809 
2641.409353  	110.203407 
2642.841011  	110.222853 
2644.272669  	110.193228 
2645.704328  	110.197976 
2647.135986  	110.214237 
2648.567644  	110.243182 
2649.999302  	110.249991 
2651.430960  	110.196748 
2652.862618  	110.196417 
2654.294277  	110.236354 
2655.725935  	110.236115 
2657.157593  	110.225760 
2658.589251  	110.191661 
2660.020909  	110.145668 
2661.452568  	110.109250 
2662.884226  	110.083565 
2664.315884  	110.118760 
2665.747542  	110.140312 
2667.179200  	110.108132 
2668.610858  	110.122613 
2670.042517  	110.137740 
2671.474175  	110.123337 
2672.905833  	110.122606 
2674.337491  	110.103897 
2675.769149  	110.126337 
2677.200808  	110.179133 
2678.632466  	110.163026 
2680.064124  	110.138622 
2681.495782  	110.118780 
2682.927440  	110.099366 
2684.359099  	110.150293 
2685.790757  	110.197984 
2687.222415  	110.191008 
2688.654073  	110.182705 
2690.085731  	110.182624 
2691.517389  	110.185260 
2692.949048  	110.159431 
2694.380706  	110.142444 
2695.812364  	110.162942 
2697.244022  	110.129221 
2698.675680  	110.107302 
2700.107339  	110.157636 
2701.538997  	110.158124 
2702.970655  	110.134055 
2704.402313  	110.127492 
2705.833971  	110.096007 
2707.265630  	110.087090 
2708.697288  	110.085090 
2710.128946  	110.057166 
2711.560604  	110.019369 
2712.992262  	109.968357 
2714.423920  	109.981034 
2715.855579  	110.042142 
2717.287237  	110.053206 
2718.718895  	110.063745 
2720.150553  	110.085995 
2721.582211  	110.098386 
2723.013870  	110.115726 
2724.445528  	110.076641 
2725.877186  	110.014294 
2727.308844  	110.007995 
2728.740502  	110.028014 
2730.172160  	110.045072 
2731.603819  	110.041977 
2733.035477  	110.059331 
2734.467135  	110.094895 
2735.898793  	110.063136 
2737.330451  	110.061041 
2738.762110  	110.114887 
2740.193768  	110.085662 
2741.625426  	110.065667 
2743.057084  	110.127552 
2744.488742  	110.167283 
2745.920401  	110.154391 
2747.352059  	110.103033 
2748.783717  	110.101910 
2750.215375  	110.150044 
2751.647033  	110.132209 
2753.078691  	110.134661 
2754.510350  	110.149592 
2755.942008  	110.086284 
2757.373666  	110.086092 
2758.805324  	110.096878 
2760.236982  	110.025624 
2761.668641  	110.031590 
2763.100299  	110.049401 
2764.531957  	110.011555 
2765.963615  	110.052403 
2767.395273  	110.073018 
2768.826931  	109.993178 
2770.258590  	109.934147 
2771.690248  	109.902856 
2773.121906  	109.883835 
2774.553564  	109.910844 
2775.985222  	109.929015 
2777.416881  	109.879541 
2778.848539  	109.825146 
2780.280197  	109.842926 
2781.711855  	109.874786 
2783.143513  	109.874790 
2784.575172  	109.904505 
2786.006830  	109.970037 
2787.438488  	110.012878 
2788.870146  	109.998614 
2790.301804  	109.963974 
2791.733462  	109.938745 
2793.165121  	109.879057 
2794.596779  	109.866827 
2796.028437  	109.939679 
2797.460095  	109.925228 
2798.891753  	109.881212 
2800.323412  	109.936936 
2801.755070  	109.963292 
2803.186728  	109.939679 
2804.618386  	109.915782 
2806.050044  	109.885048 
2807.481703  	109.899401 
2808.913361  	109.899336 
2810.345019  	109.888390 
2811.776677  	109.945260 
2813.208335  	109.940581 
2814.639993  	109.883714 
2816.071652  	109.888075 
2817.503310  	109.865724 
2818.934968  	109.823917 
2820.366626  	109.804636 
2821.798284  	109.773634 
2823.229943  	109.787292 
2824.661601  	109.825332 
2826.093259  	109.840477 
2827.524917  	109.837250 
2828.956575  	109.775774 
2830.388233  	109.750615 
2831.819892  	109.818309 
2833.251550  	109.839525 
2834.683208  	109.794343 
2836.114866  	109.740134 
2837.546524  	109.693197 
2838.978183  	109.668835 
2840.409841  	109.618681 
2841.841499  	109.548914 
2843.273157  	109.500378 
2844.704815  	109.435966 
2846.136474  	109.355069 
2847.568132  	109.277724 
2848.999790  	109.223535 
2850.431448  	109.191103 
2851.863106  	109.114980 
2853.294764  	109.027632 
2854.726423  	108.980045 
2856.158081  	108.915687 
2857.589739  	108.808667 
2859.021397  	108.641395 
2860.453055  	108.433766 
2861.884714  	108.220878 
2863.316372  	107.949956 
2864.748030  	107.690974 
2866.179688  	107.505062 
2867.611346  	107.261841 
2869.043005  	106.980295 
2870.474663  	106.768581 
2871.906321  	106.626602 
2873.337979  	106.591774 
2874.769637  	106.650533 
2876.201295  	106.752428 
2877.632954  	106.917578 
2879.064612  	107.116204 
2880.496270  	107.334958 
2881.927928  	107.546399 
2883.359586  	107.663709 
2884.791245  	107.730180 
2886.222903  	107.778217 
2887.654561  	107.783588 
2889.086219  	107.781483 
2890.517877  	107.730868 
2891.949535  	107.677267 
2893.381194  	107.723135 
2894.812852  	107.735998 
2896.244510  	107.699891 
2897.676168  	107.753964 
2899.107826  	107.800363 
2900.539485  	107.772087 
2901.971143  	107.740577 
2903.402801  	107.681182 
2904.834459  	107.598286 
2906.266117  	107.508124 
2907.697776  	107.389192 
2909.129434  	107.311885 
2910.561092  	107.275029 
2911.992750  	107.208090 
2913.424408  	107.172089 
2914.856066  	107.183228 
2916.287725  	107.194747 
2917.719383  	107.225076 
2919.151041  	107.186328 
2920.582699  	107.029180 
2922.014357  	106.903667 
2923.446016  	106.803849 
2924.877674  	106.617441 
2926.309332  	106.398047 
2927.740990  	106.181023 
2929.172648  	105.973817 
2930.604306  	105.809197 
2932.035965  	105.675876 
2933.467623  	105.626881 
2934.899281  	105.638903 
2936.330939  	105.615184 
2937.762597  	105.654874 
2939.194256  	105.772071 
2940.625914  	105.835837 
2942.057572  	105.906678 
2943.489230  	106.003311 
2944.920888  	106.043032 
2946.352547  	106.067448 
2947.784205  	106.053627 
2949.215863  	105.941790 
2950.647521  	105.768100 
2952.079179  	105.543760 
2953.510837  	105.290351 
2954.942496  	105.008754 
2956.374154  	104.640386 
2957.805812  	104.177626 
2959.237470  	103.658936 
2960.669128  	103.151402 
2962.100787  	102.655053 
2963.532445  	102.134006 
2964.964103  	101.723589 
2966.395761  	101.529761 
2967.827419  	101.473510 
2969.259078  	101.519652 
2970.690736  	101.679220 
2972.122394  	101.939126 
2973.554052  	102.327577 
2974.985710  	102.809725 
2976.417368  	103.281516 
2977.849027  	103.739224 
2979.280685  	104.249355 
2980.712343  	104.792396 
2982.144001  	105.281931 
2983.575659  	105.754055 
2985.007318  	106.243785 
2986.438976  	106.637837 
2987.870634  	106.986933 
2989.302292  	107.390223 
2990.733950  	107.732937 
2992.165608  	108.012314 
2993.597267  	108.275408 
2995.028925  	108.497456 
2996.460583  	108.755578 
2997.892241  	108.975188 
2999.323899  	109.076598 
3000.755558  	109.220645 
3002.187216  	109.405296 
3003.618874  	109.552416 
3005.050532  	109.689146 
3006.482190  	109.771454 
3007.913849  	109.850458 
3009.345507  	109.960588 
3010.777165  	110.004739 
3012.208823  	110.049369 
3013.640481  	110.147171 
3015.072139  	110.202367 
3016.503798  	110.217926 
3017.935456  	110.252637 
3019.367114  	110.326064 
3020.798772  	110.405743 
3022.230430  	110.438569 
3023.662089  	110.409547 
3025.093747  	110.320962 
3026.525405  	110.256586 
3027.957063  	110.239141 
3029.388721  	110.141382 
3030.820380  	109.980171 
3032.252038  	109.804404 
3033.683696  	109.590327 
3035.115354  	109.460573 
3036.547012  	109.422496 
3037.978670  	109.327068 
3039.410329  	109.201343 
3040.841987  	109.099413 
3042.273645  	109.045520 
3043.705303  	109.097509 
3045.136961  	109.183150 
3046.568620  	109.234333 
3048.000278  	109.294465 
3049.431936  	109.349768 
3050.863594  	109.364328 
3052.295252  	109.338096 
3053.726910  	109.293713 
3055.158569  	109.281645 
3056.590227  	109.288673 
3058.021885  	109.263685 
3059.453543  	109.252290 
3060.885201  	109.296965 
3062.316860  	109.304177 
3063.748518  	109.262550 
3065.180176  	109.318519 
3066.611834  	109.440508 
3068.043492  	109.516696 
3069.475151  	109.631563 
3070.906809  	109.772653 
3072.338467  	109.812594 
3073.770125  	109.808377 
3075.201783  	109.843074 
3076.633441  	109.895602 
3078.065100  	109.945667 
3079.496758  	109.988268 
3080.928416  	110.025489 
3082.360074  	110.061993 
3083.791732  	110.132068 
3085.223391  	110.231679 
3086.655049  	110.294552 
3088.086707  	110.344681 
3089.518365  	110.385965 
3090.950023  	110.389193 
3092.381682  	110.455953 
3093.813340  	110.549172 
3095.244998  	110.536316 
3096.676656  	110.503988 
3098.108314  	110.513814 
3099.539972  	110.532280 
3100.971631  	110.559410 
3102.403289  	110.540343 
3103.834947  	110.494457 
3105.266605  	110.507191 
3106.698263  	110.562253 
3108.129922  	110.598089 
3109.561580  	110.588263 
3110.993238  	110.598134 
3112.424896  	110.624807 
3113.856554  	110.577157 
3115.288212  	110.555013 
3116.719871  	110.624927 
3118.151529  	110.695080 
3119.583187  	110.770773 
3121.014845  	110.813987 
3122.446503  	110.786961 
3123.878162  	110.745984 
3125.309820  	110.711156 
3126.741478  	110.777494 
3128.173136  	110.863313 
3129.604794  	110.789914 
3131.036453  	110.801911 
3132.468111  	110.981099 
3133.899769  	111.048841 
3135.331427  	111.026902 
3136.763085  	111.009151 
3138.194743  	111.000947 
3139.626402  	111.024847 
3141.058060  	110.965104 
3142.489718  	110.886894 
3143.921376  	110.935267 
3145.353034  	111.017417 
3146.784693  	111.096403 
3148.216351  	111.129164 
3149.648009  	111.084383 
3151.079667  	111.079006 
3152.511325  	111.080224 
3153.942983  	111.068363 
3155.374642  	111.082572 
3156.806300  	111.048873 
3158.237958  	111.062395 
3159.669616  	111.152591 
3161.101274  	111.171490 
3162.532933  	111.175061 
3163.964591  	111.193848 
3165.396249  	111.190442 
3166.827907  	111.185897 
3168.259565  	111.132235 
3169.691224  	111.096879 
3171.122882  	111.095883 
3172.554540  	111.062577 
3173.986198  	111.144704 
3175.417856  	111.265258 
3176.849514  	111.246819 
3178.281173  	111.249383 
3179.712831  	111.263615 
3181.144489  	111.207139 
3182.576147  	111.189367 
3184.007805  	111.153966 
3185.439464  	111.080805 
3186.871122  	111.046883 
3188.302780  	111.019136 
3189.734438  	111.038569 
3191.166096  	111.108523 
3192.597755  	111.153505 
3194.029413  	111.188175 
3195.461071  	111.228794 
3196.892729  	111.300180 
3198.324387  	111.334230 
3199.756045  	111.226625 
3201.187704  	111.127430 
3202.619362  	111.154041 
3204.051020  	111.212352 
3205.482678  	111.224391 
3206.914336  	111.196113 
3208.345995  	111.209951 
3209.777653  	111.248816 
3211.209311  	111.237967 
3212.640969  	111.247905 
3214.072627  	111.257256 
3215.504285  	111.235332 
3216.935944  	111.267727 
3218.367602  	111.281322 
3219.799260  	111.251924 
3221.230918  	111.260398 
3222.662576  	111.284471 
3224.094235  	111.351852 
3225.525893  	111.389832 
3226.957551  	111.311932 
3228.389209  	111.292782 
3229.820867  	111.349313 
3231.252526  	111.352393 
3232.684184  	111.321996 
3234.115842  	111.274694 
3235.547500  	111.282077 
3236.979158  	111.324074 
3238.410816  	111.271729 
3239.842475  	111.260322 
3241.274133  	111.353004 
3242.705791  	111.409533 
3244.137449  	111.441254 
3245.569107  	111.410476 
3247.000766  	111.302839 
3248.432424  	111.275438 
3249.864082  	111.325232 
3251.295740  	111.375217 
3252.727398  	111.404335 
3254.159057  	111.398646 
3255.590715  	111.414857 
3257.022373  	111.415941 
3258.454031  	111.363324 
3259.885689  	111.374689 
3261.317347  	111.411312 
3262.749006  	111.358248 
3264.180664  	111.289236 
3265.612322  	111.284116 
3267.043980  	111.350879 
3268.475638  	111.436246 
3269.907297  	111.418621 
3271.338955  	111.318548 
3272.770613  	111.315461 
3274.202271  	111.428878 
3275.633929  	111.484110 
3277.065587  	111.444117 
3278.497246  	111.401883 
3279.928904  	111.374289 
3281.360562  	111.397410 
3282.792220  	111.450601 
3284.223878  	111.424413 
3285.655537  	111.395336 
3287.087195  	111.416550 
3288.518853  	111.383157 
3289.950511  	111.366421 
3291.382169  	111.425788 
3292.813828  	111.462235 
3294.245486  	111.491374 
3295.677144  	111.508904 
3297.108802  	111.476617 
3298.540460  	111.478673 
3299.972118  	111.478011 
3301.403777  	111.401615 
3302.835435  	111.372059 
3304.267093  	111.425130 
3305.698751  	111.454958 
3307.130409  	111.451407 
3308.562068  	111.452733 
3309.993726  	111.498010 
3311.425384  	111.591415 
3312.857042  	111.599737 
3314.288700  	111.481620 
3315.720359  	111.417072 
3317.152017  	111.463352 
3318.583675  	111.499535 
3320.015333  	111.477002 
3321.446991  	111.437462 
3322.878649  	111.454987 
3324.310308  	111.539748 
3325.741966  	111.589610 
3327.173624  	111.563144 
3328.605282  	111.529996 
3330.036940  	111.561877 
3331.468599  	111.609673 
3332.900257  	111.548467 
3334.331915  	111.467098 
3335.763573  	111.488754 
3337.195231  	111.498729 
3338.626889  	111.496489 
3340.058548  	111.545226 
3341.490206  	111.549631 
3342.921864  	111.537737 
3344.353522  	111.527961 
3345.785180  	111.476694 
3347.216839  	111.506419 
3348.648497  	111.556000 
3350.080155  	111.480026 
3351.511813  	111.444331 
3352.943471  	111.528398 
3354.375130  	111.601534 
3355.806788  	111.606121 
3357.238446  	111.553391 
3358.670104  	111.507784 
3360.101762  	111.497277 
3361.533420  	111.514050 
3362.965079  	111.556839 
3364.396737  	111.548823 
3365.828395  	111.532306 
3367.260053  	111.582999 
3368.691711  	111.571618 
3370.123370  	111.526735 
3371.555028  	111.572892 
3372.986686  	111.596983 
3374.418344  	111.571435 
3375.850002  	111.595298 
3377.281660  	111.605991 
3378.713319  	111.549401 
3380.144977  	111.550641 
3381.576635  	111.637824 
3383.008293  	111.610837 
3384.439951  	111.513371 
3385.871610  	111.598667 
3387.303268  	111.705066 
3388.734926  	111.653415 
3390.166584  	111.612510 
3391.598242  	111.582095 
3393.029901  	111.526832 
3394.461559  	111.534480 
3395.893217  	111.525999 
3397.324875  	111.511321 
3398.756533  	111.554996 
3400.188191  	111.552834 
3401.619850  	111.529209 
3403.051508  	111.550463 
3404.483166  	111.552923 
3405.914824  	111.534682 
3407.346482  	111.544324 
3408.778141  	111.580429 
3410.209799  	111.584530 
3411.641457  	111.560647 
3413.073115  	111.583878 
3414.504773  	111.606872 
3415.936432  	111.619419 
3417.368090  	111.673328 
3418.799748  	111.660651 
3420.231406  	111.582430 
3421.663064  	111.558375 
3423.094722  	111.554678 
3424.526381  	111.572516 
3425.958039  	111.630369 
3427.389697  	111.661809 
3428.821355  	111.659299 
3430.253013  	111.628800 
3431.684672  	111.580541 
3433.116330  	111.544715 
3434.547988  	111.531661 
3435.979646  	111.566523 
3437.411304  	111.600869 
3438.842962  	111.601136 
3440.274621  	111.624452 
3441.706279  	111.638886 
3443.137937  	111.613278 
3444.569595  	111.570385 
3446.001253  	111.549907 
3447.432912  	111.629627 
3448.864570  	111.688634 
3450.296228  	111.655141 
3451.727886  	111.659583 
3453.159544  	111.588499 
3454.591203  	111.475494 
3456.022861  	111.565593 
3457.454519  	111.625196 
3458.886177  	111.508846 
3460.317835  	111.506555 
3461.749493  	111.600228 
3463.181152  	111.650204 
3464.612810  	111.713818 
3466.044468  	111.734779 
3467.476126  	111.664132 
3468.907784  	111.634773 
3470.339443  	111.731362 
3471.771101  	111.771201 
3473.202759  	111.605888 
3474.634417  	111.494788 
3476.066075  	111.592075 
3477.497734  	111.641648 
3478.929392  	111.566037 
3480.361050  	111.509579 
3481.792708  	111.507634 
3483.224366  	111.527321 
3484.656024  	111.540160 
3486.087683  	111.563515 
3487.519341  	111.609926 
3488.950999  	111.627222 
3490.382657  	111.618810 
3491.814315  	111.637962 
3493.245974  	111.681379 
3494.677632  	111.687715 
3496.109290  	111.660313 
3497.540948  	111.663067 
3498.972606  	111.638689 
3500.404264  	111.579565 
3501.835923  	111.569403 
3503.267581  	111.530202 
3504.699239  	111.480956 
3506.130897  	111.555973 
3507.562555  	111.620342 
3508.994214  	111.573530 
3510.425872  	111.502677 
3511.857530  	111.500618 
3513.289188  	111.565188 
3514.720846  	111.575821 
3516.152505  	111.541879 
3517.584163  	111.580021 
3519.015821  	111.561614 
3520.447479  	111.410489 
3521.879137  	111.289196 
3523.310795  	111.313326 
3524.742454  	111.436225 
3526.174112  	111.411750 
3527.605770  	111.270452 
3529.037428  	111.276277 
3530.469086  	111.331866 
3531.900745  	111.390972 
3533.332403  	111.519199 
3534.764061  	111.487526 
3536.195719  	111.379185 
3537.627377  	111.405816 
3539.059035  	111.365883 
3540.490694  	111.334668 
3541.922352  	111.436684 
3543.354010  	111.417253 
3544.785668  	111.324469 
3546.217326  	111.367700 
3547.648985  	111.436996 
3549.080643  	111.500589 
3550.512301  	111.549002 
3551.943959  	111.489530 
3553.375617  	111.435660 
3554.807276  	111.528347 
3556.238934  	111.607409 
3557.670592  	111.549005 
3559.102250  	111.489122 
3560.533908  	111.546770 
3561.965566  	111.637544 
3563.397225  	111.643396 
3564.828883  	111.513949 
3566.260541  	111.357352 
3567.692199  	111.445720 
3569.123857  	111.661206 
3570.555516  	111.678009 
3571.987174  	111.589695 
3573.418832  	111.503001 
3574.850490  	111.447070 
3576.282148  	111.430922 
3577.713807  	111.520551 
3579.145465  	111.704804 
3580.577123  	111.783985 
3582.008781  	111.705785 
3583.440439  	111.619575 
3584.872097  	111.559179 
3586.303756  	111.539554 
3587.735414  	111.638863 
3589.167072  	111.784204 
3590.598730  	111.819195 
3592.030388  	111.767604 
3593.462047  	111.654876 
3594.893705  	111.582182 
3596.325363  	111.705587 
3597.757021  	111.814660 
3599.188679  	111.692887 
3600.620337  	111.690743 
3602.051996  	111.873387 
3603.483654  	111.779081 
3604.915312  	111.698239 
3606.346970  	111.844376 
3607.778628  	111.808158 
3609.210287  	111.801713 
3610.641945  	111.951195 
3612.073603  	111.761828 
3613.505261  	111.649949 
3614.936919  	111.886704 
3616.368578  	111.832409 
3617.800236  	111.620037 
3619.231894  	111.671146 
3620.663552  	111.898697 
3622.095210  	111.966217 
3623.526868  	111.888966 
3624.958527  	111.811113 
3626.390185  	111.682680 
3627.821843  	111.537731 
3629.253501  	111.752414 
3630.685159  	111.872069 
3632.116818  	111.626328 
3633.548476  	111.637322 
3634.980134  	111.796696 
3636.411792  	111.808612 
3637.843450  	111.842345 
3639.275109  	111.829114 
3640.706767  	111.745765 
3642.138425  	111.774938 
3643.570083  	111.768126 
3645.001741  	111.604009 
3646.433399  	111.493462 
3647.865058  	111.621506 
3649.296716  	111.728350 
3650.728374  	111.713632 
3652.160032  	111.894098 
3653.591690  	111.869686 
3655.023349  	111.708581 
3656.455007  	111.787505 
3657.886665  	111.833081 
3659.318323  	111.652760 
3660.749981  	111.703769 
3662.181639  	111.850041 
3663.613298  	111.802305 
3665.044956  	111.755827 
3666.476614  	111.750158 
3667.908272  	111.689102 
3669.339930  	111.680638 
3670.771589  	111.787815 
3672.203247  	111.645136 
3673.634905  	111.393043 
3675.066563  	111.500146 
3676.498221  	112.048260 
3677.929880  	111.877193 
3679.361538  	111.764495 
3680.793196  	111.850195 
3682.224854  	111.790460 
3683.656512  	111.768069 
3685.088170  	111.707911 
3686.519829  	111.527090 
3687.951487  	111.664006 
3689.383145  	111.997103 
3690.814803  	111.891160 
3692.246461  	111.935231 
3693.678120  	112.057443 
3695.109778  	111.932300 
3696.541436  	111.832312 
3697.973094  	111.810250 
3699.404752  	111.703534 
3700.836411  	111.716731 
3702.268069  	111.990630 
3703.699727  	112.105504 
3705.131385  	112.004501 
3706.563043  	111.928605 
3707.994701  	111.872640 
3709.426360  	111.853991 
3710.858018  	111.862379 
3712.289676  	111.875789 
3713.721334  	112.101683 
3715.152992  	112.226036 
3716.584651  	112.104360 
3718.016309  	112.072440 
3719.447967  	112.085219 
3720.879625  	111.906531 
3722.311283  	111.833535 
3723.742941  	111.945485 
3725.174600  	111.968153 
3726.606258  	111.985040 
3728.037916  	111.985561 
3729.469574  	111.895905 
3730.901232  	111.889560 
3732.332891  	111.956470 
3733.764549  	111.755873 
3735.196207  	111.608121 
3736.627865  	112.192186 
3738.059523  	112.465315 
3739.491182  	112.224222 
3740.922840  	112.213166 
3742.354498  	112.159115 
3743.786156  	111.941928 
3745.217814  	112.274004 
3746.649472  	112.262377 
3748.081131  	111.945187 
3749.512789  	112.137141 
3750.944447  	112.438304 
3752.376105  	112.353514 
3753.807763  	112.354446 
3755.239422  	112.249769 
3756.671080  	112.288322 
3758.102738  	112.411251 
3759.534396  	112.208008 
3760.966054  	112.196050 
3762.397712  	112.328300 
3763.829371  	112.173484 
3765.261029  	112.122261 
3766.692687  	112.215647 
3768.124345  	112.136554 
3769.556003  	112.173699 
3770.987662  	112.343375 
3772.419320  	112.355817 
3773.850978  	112.301891 
3775.282636  	112.231590 
3776.714294  	112.191330 
3778.145953  	112.191004 
3779.577611  	112.228487 
3781.009269  	112.244522 
3782.440927  	112.125448 
3783.872585  	112.062669 
3785.304243  	112.138075 
3786.735902  	112.163788 
3788.167560  	112.175146 
3789.599218  	112.149366 
3791.030876  	112.069160 
3792.462534  	112.156511 
3793.894193  	112.252125 
3795.325851  	112.155186 
3796.757509  	112.097984 
3798.189167  	112.106617 
3799.620825  	112.003636 
3801.052484  	112.007580 
3802.484142  	112.329506 
3803.915800  	112.284545 
3805.347458  	112.031978 
3806.779116  	112.177618 
3808.210774  	112.584232 
3809.642433  	112.357501 
3811.074091  	112.122913 
3812.505749  	112.159656 
3813.937407  	112.102263 
3815.369065  	112.078308 
3816.800724  	112.333911 
3818.232382  	112.171788 
3819.664040  	111.887097 
3821.095698  	112.122688 
3822.527356  	112.564210 
3823.959014  	112.292941 
3825.390673  	112.110713 
3826.822331  	112.285725 
3828.253989  	112.339965 
3829.685647  	112.161387 
3831.117305  	112.108194 
3832.548964  	112.147482 
3833.980622  	112.172434 
3835.412280  	112.219073 
3836.843938  	112.190649 
3838.275596  	112.181131 
3839.707255  	112.258028 
3841.138913  	112.194367 
3842.570571  	112.175719 
3844.002229  	112.367264 
3845.433887  	112.470657 
3846.865545  	112.318599 
3848.297204  	112.180432 
3849.728862  	112.145140 
3851.160520  	112.016909 
3852.592178  	111.918637 
3854.023836  	112.386194 
3855.455495  	112.550243 
3856.887153  	112.355342 
3858.318811  	112.312563 
3859.750469  	112.232221 
3861.182127  	112.143401 
3862.613786  	112.096188 
3864.045444  	111.986286 
3865.477102  	112.124798 
3866.908760  	112.274048 
3868.340418  	112.049686 
3869.772076  	112.048833 
3871.203735  	112.401943 
3872.635393  	112.257022 
3874.067051  	112.178263 
3875.498709  	112.284188 
3876.930367  	112.138773 
3878.362026  	112.040215 
3879.793684  	112.152059 
3881.225342  	112.295153 
3882.657000  	112.260717 
3884.088658  	112.054610 
3885.520316  	111.964004 
3886.951975  	112.250788 
3888.383633  	112.274856 
3889.815291  	112.125323 
3891.246949  	112.215584 
3892.678607  	112.379696 
3894.110266  	112.323661 
3895.541924  	112.231052 
3896.973582  	112.130058 
3898.405240  	112.099579 
3899.836898  	112.210720 
3901.268557  	112.194981 
3902.700215  	112.104586 
3904.131873  	112.252117 
3905.563531  	112.404034 
3906.995189  	112.356904 
3908.426847  	112.324026 
3909.858506  	112.313525 
3911.290164  	112.350431 
3912.721822  	112.453757 
3914.153480  	112.396997 
3915.585138  	112.232798 
3917.016797  	112.185494 
3918.448455  	112.155194 
3919.880113  	112.148799 
3921.311771  	112.241307 
3922.743429  	112.200342 
3924.175088  	112.141184 
3925.606746  	112.249910 
3927.038404  	112.242101 
3928.470062  	112.195135 
3929.901720  	112.284306 
3931.333378  	112.273270 
3932.765037  	112.233304 
3934.196695  	112.325010 
3935.628353  	112.305253 
3937.060011  	112.266535 
3938.491669  	112.313338 
3939.923328  	112.230766 
3941.354986  	112.090938 
3942.786644  	112.091616 
3944.218302  	112.162715 
3945.649960  	112.221009 
3947.081618  	112.273645 
3948.513277  	112.284020 
3949.944935  	112.269228 
3951.376593  	112.284194 
3952.808251  	112.295999 
3954.239909  	112.276660 
3955.671568  	112.301955 
3957.103226  	112.390490 
3958.534884  	112.421519 
3959.966542  	112.366457 
3961.398200  	112.311189 
3962.829859  	112.311575 
3964.261517  	112.354413 
3965.693175  	112.376642 
3967.124833  	112.397705 
3968.556491  	112.416383 
3969.988149  	112.341110 
3971.419808  	112.274131 
3972.851466  	112.329614 
3974.283124  	112.378683 
3975.714782  	112.358591 
3977.146440  	112.309536 
3978.578099  	112.292479 
3980.009757  	112.354071 
3981.441415  	112.344907 
3982.873073  	112.242286 
3984.304731  	112.262015 
3985.736389  	112.362785 
3987.168048  	112.380159 
3988.599706  	112.311228 
3990.031364  	112.242681 
3991.463022  	112.279803 
3992.894680  	112.347909 
3994.326339  	112.364093 
3995.757997  	112.402797 
3997.189655  	112.409924 
3998.621313  	112.378601 
4000.052971  	112.393428 