##TITLE=No Description
##DATA TYPE=INFRARED SPECTRUM
##XUNITS=1/CM
##YUNITS=%T
399.432634  	79.280929 
400.864292  	81.705851 
402.295950  	81.598743 
403.727608  	75.447695 
405.159267  	71.953088 
406.590925  	77.246053 
408.022583  	83.664586 
409.454241  	83.070039 
410.885899  	79.810015 
412.317558  	81.696397 
413.749216  	87.677281 
415.180874  	89.276634 
416.612532  	86.490755 
418.044190  	85.220901 
419.475848  	88.146092 
420.907507  	89.058869 
422.339165  	87.852408 
423.770823  	87.574725 
425.202481  	88.834311 
426.634139  	90.699797 
428.065798  	91.888176 
429.497456  	91.069380 
430.929114  	90.476396 
432.360772  	91.740551 
433.792430  	92.965372 
435.224089  	94.195617 
436.655747  	94.905410 
438.087405  	94.068194 
439.519063  	94.196644 
440.950721  	95.062773 
442.382379  	93.384736 
443.814038  	90.395021 
445.245696  	90.918697 
446.677354  	94.029613 
448.109012  	94.921502 
449.540670  	93.769125 
450.972329  	92.976723 
452.403987  	91.244712 
453.835645  	90.999946 
455.267303  	93.192499 
456.698961  	93.429217 
458.130619  	91.972190 
459.562278  	92.473628 
460.993936  	92.289600 
462.425594  	90.925061 
463.857252  	90.353378 
465.288910  	90.294104 
466.720569  	90.059930 
468.152227  	89.489517 
469.583885  	89.108703 
471.015543  	89.350012 
472.447201  	89.850071 
473.878860  	90.087821 
475.310518  	90.081995 
476.742176  	90.461138 
478.173834  	90.572355 
479.605492  	89.294949 
481.037150  	88.354908 
482.468809  	88.738320 
483.900467  	88.365925 
485.332125  	86.465384 
486.763783  	84.347140 
488.195441  	83.474666 
489.627100  	84.121385 
491.058758  	84.383834 
492.490416  	84.148277 
493.922074  	84.681707 
495.353732  	84.940395 
496.785391  	85.064012 
498.217049  	85.395181 
499.648707  	85.048215 
501.080365  	84.810267 
502.512023  	84.938520 
503.943681  	84.945781 
505.375340  	85.335631 
506.806998  	85.281253 
508.238656  	84.795418 
509.670314  	85.120457 
511.101972  	85.339055 
512.533631  	85.167507 
513.965289  	85.304741 
515.396947  	85.276176 
516.828605  	84.925821 
518.260263  	84.231231 
519.691921  	83.379189 
521.123580  	82.972788 
522.555238  	82.320631 
523.986896  	81.087042 
525.418554  	80.000014 
526.850212  	79.075610 
528.281871  	78.054213 
529.713529  	77.006105 
531.145187  	75.779470 
532.576845  	74.118662 
534.008503  	72.146278 
535.440162  	70.520805 
536.871820  	69.040839 
538.303478  	67.027013 
539.735136  	65.140319 
541.166794  	63.363566 
542.598452  	60.842617 
544.030111  	58.121821 
545.461769  	55.590650 
546.893427  	53.047222 
548.325085  	50.716804 
549.756743  	48.439805 
551.188402  	46.518602 
552.620060  	45.507079 
554.051718  	45.216490 
555.483376  	45.835502 
556.915034  	47.287445 
558.346692  	49.131576 
559.778351  	51.431828 
561.210009  	54.124847 
562.641667  	57.387768 
564.073325  	61.318690 
565.504983  	65.991842 
566.936642  	72.256114 
568.368300  	79.304176 
569.799958  	84.746651 
571.231616  	87.372664 
572.663274  	87.189350 
574.094933  	85.956246 
575.526591  	85.279912 
576.958249  	85.219004 
578.389907  	85.811675 
579.821565  	86.879053 
581.253223  	87.766533 
582.684882  	88.500509 
584.116540  	89.261580 
585.548198  	89.948070 
586.979856  	90.598905 
588.411514  	91.156010 
589.843173  	91.761599 
591.274831  	92.488442 
592.706489  	92.924623 
594.138147  	93.129885 
595.569805  	93.535543 
597.001464  	94.054115 
598.433122  	94.350361 
599.864780  	94.429940 
601.296438  	94.649316 
602.728096  	95.055427 
604.159754  	95.379852 
605.591413  	95.599414 
607.023071  	95.693143 
608.454729  	95.670748 
609.886387  	95.732707 
611.318045  	95.855048 
612.749704  	95.943189 
614.181362  	95.954018 
615.613020  	95.794097 
617.044678  	95.821136 
618.476336  	96.159459 
619.907994  	96.087495 
621.339653  	95.570472 
622.771311  	95.244803 
624.202969  	94.995723 
625.634627  	94.612039 
627.066285  	94.302017 
628.497944  	93.923325 
629.929602  	93.305486 
631.361260  	92.667349 
632.792918  	92.313374 
634.224576  	92.321189 
635.656235  	92.479282 
637.087893  	92.837385 
638.519551  	93.596616 
639.951209  	94.461969 
641.382867  	95.015997 
642.814525  	95.237264 
644.246184  	95.146766 
645.677842  	94.934935 
647.109500  	94.799302 
648.541158  	94.634188 
649.972816  	94.597161 
651.404475  	94.574679 
652.836133  	94.210710 
654.267791  	94.028273 
655.699449  	94.263349 
657.131107  	94.303468 
658.562766  	94.100958 
659.994424  	93.889700 
661.426082  	93.713906 
662.857740  	93.711868 
664.289398  	93.681029 
665.721056  	93.278083 
667.152715  	92.303212 
668.584373  	91.558496 
670.016031  	92.283293 
671.447689  	92.511582 
672.879347  	92.080746 
674.311006  	91.704092 
675.742664  	91.515911 
677.174322  	91.205694 
678.605980  	90.850238 
680.037638  	90.363499 
681.469296  	89.682340 
682.900955  	88.773289 
684.332613  	87.578014 
685.764271  	86.481982 
687.195929  	85.769027 
688.627587  	85.713585 
690.059246  	86.257047 
691.490904  	86.617158 
692.922562  	86.660106 
694.354220  	86.395166 
695.785878  	85.532754 
697.217537  	84.496268 
698.649195  	83.464934 
700.080853  	82.052245 
701.512511  	80.526737 
702.944169  	79.126401 
704.375827  	77.921842 
705.807486  	77.237299 
707.239144  	77.096862 
708.670802  	77.452712 
710.102460  	78.238074 
711.534118  	79.257230 
712.965777  	80.304628 
714.397435  	81.261924 
715.829093  	82.217582 
717.260751  	83.084753 
718.692409  	83.640422 
720.124067  	83.797568 
721.555726  	83.427719 
722.987384  	82.648702 
724.419042  	81.826751 
725.850700  	81.131972 
727.282358  	80.697741 
728.714017  	80.520571 
730.145675  	80.349590 
731.577333  	80.215883 
733.008991  	80.336779 
734.440649  	80.819312 
735.872308  	81.441759 
737.303966  	81.656092 
738.735624  	81.422672 
740.167282  	80.969954 
741.598940  	80.241744 
743.030598  	79.440463 
744.462257  	78.527726 
745.893915  	77.171616 
747.325573  	75.661918 
748.757231  	74.153165 
750.188889  	72.508480 
751.620548  	70.870411 
753.052206  	69.191616 
754.483864  	67.550528 
755.915522  	66.078261 
757.347180  	64.667379 
758.778839  	63.626026 
760.210497  	63.040310 
761.642155  	62.526958 
763.073813  	61.995790 
764.505471  	61.400000 
765.937129  	60.764212 
767.368788  	60.366842 
768.800446  	60.560528 
770.232104  	61.677084 
771.663762  	63.595262 
773.095420  	66.078285 
774.527079  	68.926655 
775.958737  	71.648372 
777.390395  	74.066315 
778.822053  	76.205188 
780.253711  	77.824945 
781.685369  	79.073252 
783.117028  	80.311084 
784.548686  	81.358625 
785.980344  	81.999725 
787.412002  	82.405343 
788.843660  	82.791200 
790.275319  	83.107207 
791.706977  	83.140076 
793.138635  	82.953981 
794.570293  	82.603483 
796.001951  	81.866760 
797.433610  	80.713122 
798.865268  	79.070427 
800.296926  	76.792988 
801.728584  	73.987146 
803.160242  	70.651220 
804.591900  	67.070292 
806.023559  	63.694147 
807.455217  	60.408715 
808.886875  	57.202943 
810.318533  	54.277171 
811.750191  	51.891385 
813.181850  	50.355918 
814.613508  	49.611848 
816.045166  	49.661896 
817.476824  	50.222962 
818.908482  	50.549063 
820.340141  	50.303485 
821.771799  	49.165013 
823.203457  	46.970707 
824.635115  	44.341230 
826.066773  	41.885900 
827.498431  	40.245833 
828.930090  	39.996058 
830.361748  	41.075253 
831.793406  	43.327042 
833.225064  	46.365277 
834.656722  	49.827997 
836.088381  	53.590011 
837.520039  	57.150048 
838.951697  	60.167266 
840.383355  	62.720641 
841.815013  	64.776730 
843.246671  	66.485829 
844.678330  	68.241065 
846.109988  	70.207851 
847.541646  	72.447091 
848.973304  	75.022944 
850.404962  	77.854625 
851.836621  	80.773454 
853.268279  	83.632608 
854.699937  	86.276203 
856.131595  	88.612809 
857.563253  	90.567794 
858.994912  	91.994382 
860.426570  	92.960553 
861.858228  	93.644719 
863.289886  	94.015860 
864.721544  	93.997810 
866.153202  	93.651719 
867.584861  	93.045337 
869.016519  	92.177056 
870.448177  	91.113782 
871.879835  	89.812215 
873.311493  	88.167454 
874.743152  	86.355984 
876.174810  	84.373686 
877.606468  	82.060606 
879.038126  	79.614428 
880.469784  	77.126167 
881.901443  	74.529816 
883.333101  	71.996014 
884.764759  	69.878508 
886.196417  	68.555950 
887.628075  	68.256026 
889.059733  	69.348067 
890.491392  	72.186291 
891.923050  	76.557368 
893.354708  	81.680048 
894.786366  	86.481088 
896.218024  	90.229513 
897.649683  	92.722686 
899.081341  	94.155393 
900.512999  	94.931408 
901.944657  	95.345714 
903.376315  	95.490732 
904.807973  	95.398356 
906.239632  	95.091500 
907.671290  	94.668832 
909.102948  	94.300985 
910.534606  	93.894929 
911.966264  	93.252016 
913.397923  	92.438515 
914.829581  	91.586678 
916.261239  	90.828771 
917.692897  	90.260822 
919.124555  	89.980708 
920.556214  	90.236721 
921.987872  	90.912070 
923.419530  	91.618755 
924.851188  	92.213478 
926.282846  	92.474418 
927.714504  	92.267180 
929.146163  	91.774858 
930.577821  	91.003889 
932.009479  	90.044236 
933.441137  	89.215681 
934.872795  	88.681609 
936.304454  	88.491272 
937.736112  	88.376766 
939.167770  	88.051258 
940.599428  	87.702048 
942.031086  	87.472470 
943.462744  	87.355038 
944.894403  	87.416538 
946.326061  	87.665615 
947.757719  	88.104345 
949.189377  	88.528741 
950.621035  	88.639011 
952.052694  	88.459289 
953.484352  	88.042025 
954.916010  	87.410863 
956.347668  	86.708666 
957.779326  	86.009160 
959.210985  	85.510948 
960.642643  	85.335200 
962.074301  	85.305089 
963.505959  	85.355009 
964.937617  	85.457222 
966.369275  	85.518302 
967.800934  	85.495806 
969.232592  	85.330319 
970.664250  	85.070375 
972.095908  	84.768217 
973.527566  	84.386976 
974.959225  	83.933398 
976.390883  	83.313238 
977.822541  	82.557347 
979.254199  	81.791052 
980.685857  	80.870630 
982.117516  	79.803418 
983.549174  	78.626728 
984.980832  	77.168251 
986.412490  	75.445575 
987.844148  	73.382590 
989.275806  	71.028509 
990.707465  	68.782140 
992.139123  	66.767125 
993.570781  	65.182654 
995.002439  	64.050985 
996.434097  	62.829077 
997.865756  	61.084392 
999.297414  	58.133991 
1000.729072  	53.537836 
1002.160730  	48.109047 
1003.592388  	43.041465 
1005.024046  	39.596683 
1006.455705  	38.134987 
1007.887363  	37.475708 
1009.319021  	36.302113 
1010.750679  	32.896317 
1012.182337  	26.968955 
1013.613996  	22.915781 
1015.045654  	25.880542 
1016.477312  	35.976522 
1017.908970  	48.952750 
1019.340628  	60.993519 
1020.772287  	70.533350 
1022.203945  	77.648175 
1023.635603  	83.285639 
1025.067261  	87.667227 
1026.498919  	90.475239 
1027.930577  	91.891868 
1029.362236  	92.419869 
1030.793894  	92.417546 
1032.225552  	92.139093 
1033.657210  	91.743145 
1035.088868  	91.182021 
1036.520527  	90.558049 
1037.952185  	89.976475 
1039.383843  	89.316408 
1040.815501  	88.662718 
1042.247159  	88.071208 
1043.678818  	87.399989 
1045.110476  	86.678606 
1046.542134  	85.957689 
1047.973792  	85.244129 
1049.405450  	84.540370 
1050.837108  	83.818673 
1052.268767  	83.111277 
1053.700425  	82.374611 
1055.132083  	81.613820 
1056.563741  	80.834874 
1057.995399  	79.904711 
1059.427058  	78.930836 
1060.858716  	77.961106 
1062.290374  	76.853108 
1063.722032  	75.646010 
1065.153690  	74.214220 
1066.585348  	72.513792 
1068.017007  	70.611753 
1069.448665  	68.192632 
1070.880323  	65.217165 
1072.311981  	61.687392 
1073.743639  	57.146694 
1075.175298  	51.075812 
1076.606956  	43.112039 
1078.038614  	35.143358 
1079.470272  	30.981052 
1080.901930  	32.281774 
1082.333589  	38.347830 
1083.765247  	47.067695 
1085.196905  	56.173963 
1086.628563  	63.938383 
1088.060221  	69.104937 
1089.491879  	71.538400 
1090.923538  	71.854915 
1092.355196  	70.720166 
1093.786854  	68.747217 
1095.218512  	66.166224 
1096.650170  	62.833892 
1098.081829  	59.083309 
1099.513487  	55.481483 
1100.945145  	52.885717 
1102.376803  	52.091970 
1103.808461  	52.548244 
1105.240120  	53.335107 
1106.671778  	53.724193 
1108.103436  	53.515994 
1109.535094  	53.553886 
1110.966752  	54.224646 
1112.398410  	55.255206 
1113.830069  	56.414600 
1115.261727  	57.236285 
1116.693385  	57.701463 
1118.125043  	57.920729 
1119.556701  	57.624457 
1120.988360  	56.963839 
1122.420018  	56.014486 
1123.851676  	54.701701 
1125.283334  	53.286740 
1126.714992  	51.621893 
1128.146650  	49.746602 
1129.578309  	47.938180 
1131.009967  	45.936914 
1132.441625  	43.841894 
1133.873283  	41.654646 
1135.304941  	39.200623 
1136.736600  	36.836432 
1138.168258  	34.318858 
1139.599916  	31.567773 
1141.031574  	28.963924 
1142.463232  	26.205031 
1143.894891  	23.485037 
1145.326549  	20.936555 
1146.758207  	18.286822 
1148.189865  	15.957948 
1149.621523  	13.736152 
1151.053181  	11.567168 
1152.484840  	9.878850 
1153.916498  	8.183044 
1155.348156  	6.750753 
1156.779814  	5.824550 
1158.211472  	5.083773 
1159.643131  	5.292573 
1161.074789  	6.463765 
1162.506447  	8.467811 
1163.938105  	11.826844 
1165.369763  	16.044926 
1166.801421  	21.038215 
1168.233080  	26.461241 
1169.664738  	30.940001 
1171.096396  	33.635934 
1172.528054  	33.628411 
1173.959712  	30.672364 
1175.391371  	26.249912 
1176.823029  	21.705234 
1178.254687  	17.902219 
1179.686345  	15.033187 
1181.118003  	12.229302 
1182.549662  	9.684026 
1183.981320  	7.699008 
1185.412978  	6.278563 
1186.844636  	6.114608 
1188.276294  	6.786666 
1189.707952  	8.019515 
1191.139611  	10.079817 
1192.571269  	12.370884 
1194.002927  	15.045187 
1195.434585  	18.143184 
1196.866243  	21.306523 
1198.297902  	24.905234 
1199.729560  	28.558456 
1201.161218  	32.032405 
1202.592876  	35.506480 
1204.024534  	38.178158 
1205.456193  	39.495002 
1206.887851  	38.928731 
1208.319509  	35.888959 
1209.751167  	31.257480 
1211.182825  	26.074891 
1212.614483  	21.171480 
1214.046142  	17.710360 
1215.477800  	15.438422 
1216.909458  	14.174183 
1218.341116  	13.989940 
1219.772774  	14.166185 
1221.204433  	14.904331 
1222.636091  	16.059515 
1224.067749  	17.197916 
1225.499407  	18.724312 
1226.931065  	20.237742 
1228.362723  	21.699259 
1229.794382  	23.420831 
1231.226040  	24.902927 
1232.657698  	26.471242 
1234.089356  	28.204794 
1235.521014  	29.666975 
1236.952673  	31.260205 
1238.384331  	32.830786 
1239.815989  	34.291786 
1241.247647  	35.960551 
1242.679305  	37.498161 
1244.110964  	39.176373 
1245.542622  	41.181935 
1246.974280  	43.202185 
1248.405938  	45.612925 
1249.837596  	48.313232 
1251.269254  	51.189842 
1252.700913  	54.556939 
1254.132571  	58.046238 
1255.564229  	61.694533 
1256.995887  	65.678434 
1258.427545  	69.616006 
1259.859204  	73.557859 
1261.290862  	77.462104 
1262.722520  	81.029599 
1264.154178  	84.253399 
1265.585836  	87.017073 
1267.017495  	89.248573 
1268.449153  	91.094930 
1269.880811  	92.550926 
1271.312469  	93.618172 
1272.744127  	94.390005 
1274.175785  	94.816507 
1275.607444  	94.975064 
1277.039102  	94.981216 
1278.470760  	94.700000 
1279.902418  	94.160905 
1281.334076  	93.510855 
1282.765735  	92.748041 
1284.197393  	91.910709 
1285.629051  	91.054055 
1287.060709  	90.268060 
1288.492367  	89.630718 
1289.924025  	89.191296 
1291.355684  	89.089114 
1292.787342  	89.401505 
1294.219000  	90.149635 
1295.650658  	91.295286 
1297.082316  	92.686305 
1298.513975  	94.166341 
1299.945633  	95.606643 
1301.377291  	96.809184 
1302.808949  	97.702808 
1304.240607  	98.323940 
1305.672266  	98.469858 
1307.103924  	98.145388 
1308.535582  	97.702322 
1309.967240  	97.598000 
1311.398898  	98.214392 
1312.830556  	99.485563 
1314.262215  	100.973992 
1315.693873  	102.315346 
1317.125531  	103.282982 
1318.557189  	103.908772 
1319.988847  	104.394028 
1321.420506  	104.672024 
1322.852164  	104.881499 
1324.283822  	105.080016 
1325.715480  	105.138350 
1327.147138  	105.267083 
1328.578796  	105.418365 
1330.010455  	105.459328 
1331.442113  	105.549559 
1332.873771  	105.604063 
1334.305429  	105.646055 
1335.737087  	105.712892 
1337.168746  	105.664312 
1338.600404  	105.687729 
1340.032062  	105.757817 
1341.463720  	105.743766 
1342.895378  	105.792184 
1344.327037  	105.770058 
1345.758695  	105.748742 
1347.190353  	105.764559 
1348.622011  	105.620853 
1350.053669  	105.587462 
1351.485327  	105.589964 
1352.916986  	105.409436 
1354.348644  	105.263545 
1355.780302  	104.915613 
1357.211960  	104.340581 
1358.643618  	103.359087 
1360.075277  	101.075750 
1361.506935  	97.449788 
1362.938593  	93.222743 
1364.370251  	91.099714 
1365.801909  	92.257234 
1367.233568  	95.336741 
1368.665226  	98.927816 
1370.096884  	101.663842 
1371.528542  	103.135599 
1372.960200  	103.749287 
1374.391858  	104.205538 
1375.823517  	104.442970 
1377.255175  	104.408036 
1378.686833  	104.243280 
1380.118491  	103.727691 
1381.550149  	102.811020 
1382.981808  	101.142070 
1384.413466  	99.078373 
1385.845124  	97.530752 
1387.276782  	97.291577 
1388.708440  	98.557040 
1390.140098  	100.071189 
1391.571757  	101.538704 
1393.003415  	102.507718 
1394.435073  	102.891965 
1395.866731  	103.048995 
1397.298389  	102.803463 
1398.730048  	102.187940 
1400.161706  	101.468818 
1401.593364  	100.395688 
1403.025022  	98.844084 
1404.456680  	96.986182 
1405.888339  	94.748210 
1407.319997  	92.691556 
1408.751655  	91.590929 
1410.183313  	91.480449 
1411.614971  	92.745814 
1413.046629  	95.048344 
1414.478288  	97.427646 
1415.909946  	99.810244 
1417.341604  	101.651147 
1418.773262  	102.907209 
1420.204920  	104.244433 
1421.636579  	104.747421 
1423.068237  	104.921380 
1424.499895  	105.409170 
1425.931553  	105.613245 
1427.363211  	105.635343 
1428.794870  	105.710914 
1430.226528  	105.651155 
1431.658186  	105.767707 
1433.089844  	105.740956 
1434.521502  	105.461803 
1435.953160  	105.351244 
1437.384819  	105.119652 
1438.816477  	104.805962 
1440.248135  	104.357774 
1441.679793  	103.570821 
1443.111451  	103.020575 
1444.543110  	102.488459 
1445.974768  	101.813716 
1447.406426  	101.353333 
1448.838084  	100.712750 
1450.269742  	100.214460 
1451.701400  	100.099374 
1453.133059  	100.014514 
1454.564717  	99.955824 
1455.996375  	99.635666 
1457.428033  	98.522459 
1458.859691  	97.527670 
1460.291350  	96.131403 
1461.723008  	94.714764 
1463.154666  	93.689535 
1464.586324  	93.040588 
1466.017982  	93.490147 
1467.449641  	93.972874 
1468.881299  	94.456826 
1470.312957  	95.100193 
1471.744615  	95.302321 
1473.176273  	95.932628 
1474.607931  	96.459278 
1476.039590  	96.188310 
1477.471248  	96.290041 
1478.902906  	96.072582 
1480.334564  	95.257697 
1481.766222  	94.588182 
1483.197881  	93.320417 
1484.629539  	91.518853 
1486.061197  	89.630168 
1487.492855  	86.719169 
1488.924513  	83.545908 
1490.356172  	80.051736 
1491.787830  	74.941342 
1493.219488  	70.638375 
1494.651146  	66.360073 
1496.082804  	60.761591 
1497.514462  	55.752941 
1498.946121  	50.938220 
1500.377779  	46.557538 
1501.809437  	44.469788 
1503.241095  	43.174670 
1504.672753  	42.975768 
1506.104412  	45.984953 
1507.536070  	53.034719 
1508.967728  	60.232694 
1510.399386  	67.137303 
1511.831044  	74.283554 
1513.262702  	81.523230 
1514.694361  	86.964459 
1516.126019  	90.864353 
1517.557677  	95.190872 
1518.989335  	97.783189 
1520.420993  	98.768200 
1521.852652  	100.955226 
1523.284310  	102.412219 
1524.715968  	102.695327 
1526.147626  	103.666905 
1527.579284  	104.379224 
1529.010943  	104.757623 
1530.442601  	105.328300 
1531.874259  	105.395439 
1533.305917  	105.602005 
1534.737575  	106.342860 
1536.169233  	106.376630 
1537.600892  	106.339710 
1539.032550  	106.306811 
1540.464208  	106.440354 
1541.895866  	107.097006 
1543.327524  	107.108070 
1544.759183  	107.212794 
1546.190841  	107.646258 
1547.622499  	107.563418 
1549.054157  	107.505800 
1550.485815  	107.768447 
1551.917473  	107.785056 
1553.349132  	107.776243 
1554.780790  	107.869240 
1556.212448  	107.814782 
1557.644106  	107.620162 
1559.075764  	107.512361 
1560.507423  	108.333486 
1561.939081  	108.390570 
1563.370739  	108.250516 
1564.802397  	108.333400 
1566.234055  	108.392031 
1567.665714  	108.242785 
1569.097372  	108.200285 
1570.529030  	108.287309 
1571.960688  	108.301810 
1573.392346  	108.181731 
1574.824004  	107.919768 
1576.255663  	107.860583 
1577.687321  	107.959951 
1579.118979  	107.777946 
1580.550637  	107.540787 
1581.982295  	107.229732 
1583.413954  	106.755333 
1584.845612  	106.081340 
1586.277270  	105.203544 
1587.708928  	104.159107 
1589.140586  	102.949909 
1590.572245  	101.878550 
1592.003903  	101.097227 
1593.435561  	100.733706 
1594.867219  	100.844329 
1596.298877  	101.082452 
1597.730535  	101.248029 
1599.162194  	101.105050 
1600.593852  	100.768547 
1602.025510  	100.647837 
1603.457168  	100.739450 
1604.888826  	101.202188 
1606.320485  	101.997726 
1607.752143  	102.925883 
1609.183801  	104.038365 
1610.615459  	105.029810 
1612.047117  	105.844241 
1613.478775  	106.393580 
1614.910434  	106.599018 
1616.342092  	106.850310 
1617.773750  	107.371576 
1619.205408  	107.638653 
1620.637066  	107.674529 
1622.068725  	107.624143 
1623.500383  	107.803739 
1624.932041  	108.057576 
1626.363699  	108.028418 
1627.795357  	108.062694 
1629.227016  	108.195451 
1630.658674  	108.164121 
1632.090332  	108.080933 
1633.521990  	107.899019 
1634.953648  	107.642473 
1636.385306  	107.702186 
1637.816965  	107.694256 
1639.248623  	107.544536 
1640.680281  	107.559238 
1642.111939  	107.544198 
1643.543597  	107.335141 
1644.975256  	107.079465 
1646.406914  	106.980257 
1647.838572  	107.266642 
1649.270230  	107.356850 
1650.701888  	107.130224 
1652.133547  	106.812751 
1653.565205  	107.027036 
1654.996863  	107.448301 
1656.428521  	107.368214 
1657.860179  	107.318424 
1659.291837  	107.391990 
1660.723496  	107.371166 
1662.155154  	107.303417 
1663.586812  	107.454982 
1665.018470  	107.555974 
1666.450128  	107.530864 
1667.881787  	107.480163 
1669.313445  	107.486912 
1670.745103  	107.827468 
1672.176761  	108.002865 
1673.608419  	107.839575 
1675.040077  	107.871501 
1676.471736  	108.172329 
1677.903394  	108.149138 
1679.335052  	108.066301 
1680.766710  	108.033862 
1682.198368  	107.887811 
1683.630027  	107.617487 
1685.061685  	107.955158 
1686.493343  	108.160201 
1687.925001  	107.921155 
1689.356659  	107.792423 
1690.788318  	107.839739 
1692.219976  	107.681418 
1693.651634  	107.399861 
1695.083292  	107.025503 
1696.514950  	106.941817 
1697.946608  	106.965800 
1699.378267  	106.436068 
1700.809925  	106.296185 
1702.241583  	106.473672 
1703.673241  	105.856449 
1705.104899  	105.493791 
1706.536558  	105.477098 
1707.968216  	105.071434 
1709.399874  	104.869803 
1710.831532  	104.555677 
1712.263190  	104.052546 
1713.694849  	103.826331 
1715.126507  	103.309597 
1716.558165  	102.733883 
1717.989823  	102.576957 
1719.421481  	102.119007 
1720.853139  	101.758637 
1722.284798  	101.204279 
1723.716456  	100.457272 
1725.148114  	100.037066 
1726.579772  	99.316070 
1728.011430  	98.568879 
1729.443089  	98.092622 
1730.874747  	97.270969 
1732.306405  	96.711796 
1733.738063  	96.285648 
1735.169721  	95.699341 
1736.601379  	95.422312 
1738.033038  	94.553166 
1739.464696  	93.700670 
1740.896354  	93.297604 
1742.328012  	92.086409 
1743.759670  	91.096315 
1745.191329  	90.068222 
1746.622987  	88.195027 
1748.054645  	86.689196 
1749.486303  	84.636474 
1750.917961  	81.758927 
1752.349620  	79.080677 
1753.781278  	75.339213 
1755.212936  	71.422394 
1756.644594  	67.043032 
1758.076252  	60.795447 
1759.507910  	55.179995 
1760.939569  	49.655737 
1762.371227  	42.823962 
1763.802885  	37.807026 
1765.234543  	34.180541 
1766.666201  	31.045642 
1768.097860  	30.213223 
1769.529518  	30.097401 
1770.961176  	30.069113 
1772.392834  	32.659883 
1773.824492  	35.129712 
1775.256150  	37.059101 
1776.687809  	40.422715 
1778.119467  	43.305646 
1779.551125  	46.354427 
1780.982783  	50.684099 
1782.414441  	54.131309 
1783.846100  	57.734931 
1785.277758  	62.164455 
1786.709416  	65.981776 
1788.141074  	70.094505 
1789.572732  	73.878918 
1791.004391  	77.160383 
1792.436049  	82.100177 
1793.867707  	86.025340 
1795.299365  	88.702408 
1796.731023  	91.923847 
1798.162681  	94.057816 
1799.594340  	96.065649 
1801.025998  	98.354567 
1802.457656  	99.553935 
1803.889314  	101.037256 
1805.320972  	102.091240 
1806.752631  	102.631679 
1808.184289  	103.759016 
1809.615947  	104.241096 
1811.047605  	104.668824 
1812.479263  	105.461746 
1813.910922  	105.552207 
1815.342580  	106.023312 
1816.774238  	106.438440 
1818.205896  	106.413655 
1819.637554  	106.955483 
1821.069212  	107.078657 
1822.500871  	107.116015 
1823.932529  	107.464220 
1825.364187  	107.254377 
1826.795845  	107.550070 
1828.227503  	107.748507 
1829.659162  	107.451432 
1831.090820  	108.002644 
1832.522478  	108.080095 
1833.954136  	108.013389 
1835.385794  	108.434587 
1836.817452  	108.254690 
1838.249111  	108.384922 
1839.680769  	108.735252 
1841.112427  	108.411146 
1842.544085  	108.512236 
1843.975743  	108.705965 
1845.407402  	108.781075 
1846.839060  	109.150916 
1848.270718  	108.896664 
1849.702376  	108.856706 
1851.134034  	109.011014 
1852.565693  	108.694677 
1853.997351  	109.010804 
1855.429009  	109.223530 
1856.860667  	108.915746 
1858.292325  	109.078311 
1859.723983  	109.040040 
1861.155642  	109.154639 
1862.587300  	109.521468 
1864.018958  	109.263155 
1865.450616  	109.271593 
1866.882274  	109.248405 
1868.313933  	109.004883 
1869.745591  	109.574831 
1871.177249  	109.404793 
1872.608907  	109.029482 
1874.040565  	109.281109 
1875.472224  	109.042594 
1876.903882  	108.943783 
1878.335540  	109.123193 
1879.767198  	108.965991 
1881.198856  	109.196755 
1882.630514  	109.160406 
1884.062173  	108.858233 
1885.493831  	108.993943 
1886.925489  	108.736913 
1888.357147  	108.550768 
1889.788805  	108.588631 
1891.220464  	108.246681 
1892.652122  	108.239383 
1894.083780  	108.035488 
1895.515438  	107.727221 
1896.947096  	107.998267 
1898.378754  	107.919879 
1899.810413  	107.911133 
1901.242071  	108.067447 
1902.673729  	107.822044 
1904.105387  	108.088480 
1905.537045  	108.316105 
1906.968704  	108.283155 
1908.400362  	108.773137 
1909.832020  	108.830198 
1911.263678  	108.989002 
1912.695336  	109.576316 
1914.126995  	109.457314 
1915.558653  	109.634704 
1916.990311  	109.939453 
1918.421969  	109.657203 
1919.853627  	109.941244 
1921.285285  	109.898802 
1922.716944  	109.653277 
1924.148602  	109.964282 
1925.580260  	109.630795 
1927.011918  	109.576790 
1928.443576  	110.018002 
1929.875235  	109.948810 
1931.306893  	110.278874 
1932.738551  	110.433859 
1934.170209  	110.260244 
1935.601867  	110.562350 
1937.033525  	110.229757 
1938.465184  	110.062710 
1939.896842  	110.386402 
1941.328500  	110.077087 
1942.760158  	110.277626 
1944.191816  	110.370718 
1945.623475  	110.007526 
1947.055133  	110.441406 
1948.486791  	110.263010 
1949.918449  	109.799471 
1951.350107  	109.878228 
1952.781766  	109.755403 
1954.213424  	110.381520 
1955.645082  	110.706118 
1957.076740  	110.213487 
1958.508398  	110.590809 
1959.940056  	110.040197 
1961.371715  	109.349291 
1962.803373  	110.063295 
1964.235031  	109.789542 
1965.666689  	109.724759 
1967.098347  	110.366884 
1968.530006  	110.111770 
1969.961664  	110.250669 
1971.393322  	109.885088 
1972.824980  	109.595862 
1974.256638  	110.327786 
1975.688297  	109.770108 
1977.119955  	109.675818 
1978.551613  	110.238648 
1979.983271  	109.819362 
1981.414929  	110.319733 
1982.846587  	110.235590 
1984.278246  	109.660099 
1985.709904  	110.320437 
1987.141562  	110.029764 
1988.573220  	109.652893 
1990.004878  	109.977557 
1991.436537  	109.422555 
1992.868195  	109.775951 
1994.299853  	110.312627 
1995.731511  	109.825958 
1997.163169  	109.952669 
1998.594827  	109.866082 
2000.026486  	109.980292 
2001.458144  	110.662809 
2002.889802  	110.117467 
2004.321460  	109.803448 
2005.753118  	109.876017 
2007.184777  	109.555243 
2008.616435  	109.960764 
2010.048093  	109.639705 
2011.479751  	109.539242 
2012.911409  	110.430869 
2014.343068  	109.996602 
2015.774726  	109.981502 
2017.206384  	110.313263 
2018.638042  	109.568798 
2020.069700  	109.896725 
2021.501358  	109.795718 
2022.933017  	109.394315 
2024.364675  	110.252577 
2025.796333  	109.705238 
2027.227991  	109.122551 
2028.659649  	109.632601 
2030.091308  	109.478230 
2031.522966  	109.909670 
2032.954624  	109.786913 
2034.386282  	109.243564 
2035.817940  	110.170406 
2037.249599  	110.098201 
2038.681257  	109.758533 
2040.112915  	110.079312 
2041.544573  	109.502752 
2042.976231  	109.647033 
2044.407889  	109.760008 
2045.839548  	109.036839 
2047.271206  	109.410714 
2048.702864  	109.761771 
2050.134522  	109.808587 
2051.566180  	109.985168 
2052.997839  	109.606816 
2054.429497  	109.899263 
2055.861155  	110.178612 
2057.292813  	109.769432 
2058.724471  	110.242456 
2060.156129  	110.381870 
2061.587788  	109.903946 
2063.019446  	110.218330 
2064.451104  	110.478503 
2065.882762  	110.768875 
2067.314420  	110.978511 
2068.746079  	110.599157 
2070.177737  	110.678464 
2071.609395  	110.471704 
2073.041053  	110.047206 
2074.472711  	110.465448 
2075.904370  	110.421645 
2077.336028  	110.256794 
2078.767686  	110.698866 
2080.199344  	110.726558 
2081.631002  	110.749859 
2083.062660  	110.728609 
2084.494319  	110.438304 
2085.925977  	110.540258 
2087.357635  	110.487250 
2088.789293  	110.481268 
2090.220951  	110.766236 
2091.652610  	110.710255 
2093.084268  	110.998953 
2094.515926  	111.202550 
2095.947584  	110.846514 
2097.379242  	111.111430 
2098.810901  	111.196500 
2100.242559  	110.872131 
2101.674217  	111.040222 
2103.105875  	111.039660 
2104.537533  	111.225437 
2105.969191  	111.527755 
2107.400850  	111.109652 
2108.832508  	111.009399 
2110.264166  	111.160161 
2111.695824  	111.024291 
2113.127482  	111.100944 
2114.559141  	111.015926 
2115.990799  	111.051863 
2117.422457  	111.346930 
2118.854115  	111.276180 
2120.285773  	111.401393 
2121.717431  	111.423959 
2123.149090  	111.099181 
2124.580748  	111.347646 
2126.012406  	111.398378 
2127.444064  	111.040544 
2128.875722  	111.135804 
2130.307381  	111.224570 
2131.739039  	111.328849 
2133.170697  	111.386903 
2134.602355  	111.152511 
2136.034013  	111.250491 
2137.465672  	111.083144 
2138.897330  	110.825654 
2140.328988  	111.077926 
2141.760646  	110.923661 
2143.192304  	110.820493 
2144.623962  	110.819108 
2146.055621  	110.589143 
2147.487279  	111.056416 
2148.918937  	110.964963 
2150.350595  	110.366253 
2151.782253  	110.802581 
2153.213912  	110.795199 
2154.645570  	110.472204 
2156.077228  	110.480915 
2157.508886  	110.158595 
2158.940544  	110.591319 
2160.372202  	110.275391 
2161.803861  	109.532723 
2163.235519  	110.578509 
2164.667177  	111.165325 
2166.098835  	111.045148 
2167.530493  	111.092401 
2168.962152  	110.752684 
2170.393810  	111.160850 
2171.825468  	111.196550 
2173.257126  	110.452084 
2174.688784  	110.778554 
2176.120443  	110.903477 
2177.552101  	110.786915 
2178.983759  	111.146871 
2180.415417  	110.747489 
2181.847075  	110.823030 
2183.278733  	110.948498 
2184.710392  	109.971339 
2186.142050  	110.045266 
2187.573708  	110.400907 
2189.005366  	110.038735 
2190.437024  	110.326876 
2191.868683  	110.494894 
2193.300341  	110.265361 
2194.731999  	110.148397 
2196.163657  	109.829965 
2197.595315  	109.878558 
2199.026974  	110.084745 
2200.458632  	110.150180 
2201.890290  	110.302410 
2203.321948  	110.103015 
2204.753606  	110.144548 
2206.185264  	110.350697 
2207.616923  	110.080771 
2209.048581  	110.200966 
2210.480239  	110.352766 
2211.911897  	110.284012 
2213.343555  	110.598300 
2214.775214  	110.385268 
2216.206872  	110.043845 
2217.638530  	110.286593 
2219.070188  	110.214462 
2220.501846  	109.987981 
2221.933504  	109.743469 
2223.365163  	109.561438 
2224.796821  	109.809595 
2226.228479  	109.556746 
2227.660137  	109.174834 
2229.091795  	109.461860 
2230.523454  	109.468164 
2231.955112  	109.307514 
2233.386770  	109.421679 
2234.818428  	109.529611 
2236.250086  	109.722088 
2237.681745  	109.663175 
2239.113403  	109.530647 
2240.545061  	109.730387 
2241.976719  	109.797475 
2243.408377  	109.819598 
2244.840035  	109.840386 
2246.271694  	109.854471 
2247.703352  	110.126597 
2249.135010  	110.055598 
2250.566668  	109.919527 
2251.998326  	110.237338 
2253.429985  	110.243443 
2254.861643  	110.187693 
2256.293301  	110.375157 
2257.724959  	110.409621 
2259.156617  	110.637270 
2260.588276  	110.734070 
2262.019934  	110.574200 
2263.451592  	110.787576 
2264.883250  	110.973329 
2266.314908  	111.083442 
2267.746566  	111.292801 
2269.178225  	111.215882 
2270.609883  	111.131543 
2272.041541  	111.022528 
2273.473199  	110.962173 
2274.904857  	111.327155 
2276.336516  	111.404134 
2277.768174  	111.214219 
2279.199832  	111.346649 
2280.631490  	111.343900 
2282.063148  	111.261258 
2283.494806  	111.363087 
2284.926465  	111.460125 
2286.358123  	111.514818 
2287.789781  	111.368135 
2289.221439  	111.317142 
2290.653097  	111.480666 
2292.084756  	111.330982 
2293.516414  	111.193479 
2294.948072  	111.272948 
2296.379730  	111.177343 
2297.811388  	111.162095 
2299.243047  	111.194845 
2300.674705  	111.032809 
2302.106363  	110.921251 
2303.538021  	110.851786 
2304.969679  	110.810283 
2306.401337  	110.712970 
2307.832996  	110.473252 
2309.264654  	110.411753 
2310.696312  	110.308342 
2312.127970  	110.053155 
2313.559628  	110.099362 
2314.991287  	110.150836 
2316.422945  	110.004917 
2317.854603  	109.857660 
2319.286261  	109.549314 
2320.717919  	109.277831 
2322.149577  	109.153031 
2323.581236  	109.042520 
2325.012894  	109.069358 
2326.444552  	108.951541 
2327.876210  	108.653740 
2329.307868  	108.546160 
2330.739527  	108.520748 
2332.171185  	108.510568 
2333.602843  	108.552299 
2335.034501  	108.534712 
2336.466159  	108.524010 
2337.897818  	108.476018 
2339.329476  	108.450235 
2340.761134  	108.427924 
2342.192792  	108.262964 
2343.624450  	108.299305 
2345.056108  	108.469693 
2346.487767  	108.761548 
2347.919425  	109.442742 
2349.351083  	109.676248 
2350.782741  	109.080224 
2352.214399  	108.430385 
2353.646058  	108.135095 
2355.077716  	107.896235 
2356.509374  	107.693728 
2357.941032  	107.412436 
2359.372690  	107.284796 
2360.804349  	107.334095 
2362.236007  	107.198263 
2363.667665  	107.225142 
2365.099323  	107.497751 
2366.530981  	107.787918 
2367.962639  	108.071078 
2369.394298  	108.229421 
2370.825956  	108.557038 
2372.257614  	108.999061 
2373.689272  	109.203321 
2375.120930  	109.446724 
2376.552589  	109.689298 
2377.984247  	109.860106 
2379.415905  	110.224213 
2380.847563  	110.570084 
2382.279221  	110.819376 
2383.710879  	111.093427 
2385.142538  	111.219109 
2386.574196  	111.259035 
2388.005854  	111.276339 
2389.437512  	111.203371 
2390.869170  	111.213937 
2392.300829  	111.296417 
2393.732487  	111.305423 
2395.164145  	111.276860 
2396.595803  	111.271596 
2398.027461  	111.301569 
2399.459120  	111.278225 
2400.890778  	111.261936 
2402.322436  	111.285541 
2403.754094  	111.166643 
2405.185752  	111.089456 
2406.617410  	111.126955 
2408.049069  	111.049919 
2409.480727  	111.046263 
2410.912385  	111.106103 
2412.344043  	111.080857 
2413.775701  	111.149406 
2415.207360  	111.149361 
2416.639018  	111.049654 
2418.070676  	111.111576 
2419.502334  	111.199746 
2420.933992  	111.257337 
2422.365651  	111.294035 
2423.797309  	111.263012 
2425.228967  	111.303241 
2426.660625  	111.316787 
2428.092283  	111.307510 
2429.523941  	111.373822 
2430.955600  	111.327834 
2432.387258  	111.335667 
2433.818916  	111.457172 
2435.250574  	111.441364 
2436.682232  	111.444473 
2438.113891  	111.462181 
2439.545549  	111.446731 
2440.977207  	111.522286 
2442.408865  	111.474786 
2443.840523  	111.406223 
2445.272181  	111.446416 
2446.703840  	111.367548 
2448.135498  	111.380766 
2449.567156  	111.506679 
2450.998814  	111.514857 
2452.430472  	111.540940 
2453.862131  	111.515683 
2455.293789  	111.499717 
2456.725447  	111.611987 
2458.157105  	111.555529 
2459.588763  	111.434205 
2461.020422  	111.430870 
2462.452080  	111.465593 
2463.883738  	111.609957 
2465.315396  	111.621024 
2466.747054  	111.447810 
2468.178712  	111.428391 
2469.610371  	111.429239 
2471.042029  	111.391388 
2472.473687  	111.439273 
2473.905345  	111.475728 
2475.337003  	111.507113 
2476.768662  	111.459987 
2478.200320  	111.383184 
2479.631978  	111.441134 
2481.063636  	111.472048 
2482.495294  	111.501871 
2483.926953  	111.512204 
2485.358611  	111.381471 
2486.790269  	111.435552 
2488.221927  	111.589906 
2489.653585  	111.588564 
2491.085243  	111.688443 
2492.516902  	111.783312 
2493.948560  	111.723609 
2495.380218  	111.690394 
2496.811876  	111.719871 
2498.243534  	111.875424 
2499.675193  	111.960214 
2501.106851  	111.861964 
2502.538509  	111.942791 
2503.970167  	112.029613 
2505.401825  	111.872057 
2506.833483  	111.815217 
2508.265142  	111.948272 
2509.696800  	112.037565 
2511.128458  	111.936785 
2512.560116  	111.856317 
2513.991774  	112.025322 
2515.423433  	112.097055 
2516.855091  	112.006462 
2518.286749  	112.017763 
2519.718407  	112.008529 
2521.150065  	112.045395 
2522.581724  	112.118342 
2524.013382  	112.031070 
2525.445040  	112.001970 
2526.876698  	112.064106 
2528.308356  	112.148034 
2529.740014  	112.225817 
2531.171673  	112.080972 
2532.603331  	112.017246 
2534.034989  	112.140318 
2535.466647  	112.080212 
2536.898305  	112.094897 
2538.329964  	112.197963 
2539.761622  	112.127944 
2541.193280  	112.157704 
2542.624938  	112.176007 
2544.056596  	112.076757 
2545.488254  	112.132754 
2546.919913  	112.208586 
2548.351571  	112.219183 
2549.783229  	112.193169 
2551.214887  	112.139930 
2552.646545  	112.222736 
2554.078204  	112.267772 
2555.509862  	112.229774 
2556.941520  	112.255949 
2558.373178  	112.195871 
2559.804836  	112.211454 
2561.236495  	112.318944 
2562.668153  	112.267457 
2564.099811  	112.283111 
2565.531469  	112.268983 
2566.963127  	112.096849 
2568.394785  	112.133108 
2569.826444  	112.227549 
2571.258102  	112.194251 
2572.689760  	112.180599 
2574.121418  	112.120729 
2575.553076  	112.106163 
2576.984735  	112.145814 
2578.416393  	112.155536 
2579.848051  	112.265872 
2581.279709  	112.273037 
2582.711367  	112.136774 
2584.143026  	112.179631 
2585.574684  	112.266451 
2587.006342  	112.208487 
2588.438000  	112.103553 
2589.869658  	112.083389 
2591.301316  	112.175203 
2592.732975  	112.188386 
2594.164633  	112.180315 
2595.596291  	112.253800 
2597.027949  	112.193128 
2598.459607  	112.127914 
2599.891266  	112.220331 
2601.322924  	112.298566 
2602.754582  	112.361676 
2604.186240  	112.364810 
2605.617898  	112.273810 
2607.049556  	112.229564 
2608.481215  	112.209490 
2609.912873  	112.224404 
2611.344531  	112.263967 
2612.776189  	112.254470 
2614.207847  	112.295785 
2615.639506  	112.333372 
2617.071164  	112.322266 
2618.502822  	112.350631 
2619.934480  	112.310420 
2621.366138  	112.268173 
2622.797797  	112.355995 
2624.229455  	112.455377 
2625.661113  	112.530989 
2627.092771  	112.546299 
2628.524429  	112.514166 
2629.956087  	112.526004 
2631.387746  	112.488778 
2632.819404  	112.466932 
2634.251062  	112.526720 
2635.682720  	112.519400 
2637.114378  	112.508842 
2638.546037  	112.507062 
2639.977695  	112.469212 
2641.409353  	112.521326 
2642.841011  	112.547768 
2644.272669  	112.485899 
2645.704328  	112.481852 
2647.135986  	112.488209 
2648.567644  	112.501805 
2649.999302  	112.518316 
2651.430960  	112.464498 
2652.862618  	112.438113 
2654.294277  	112.434447 
2655.725935  	112.414276 
2657.157593  	112.418598 
2658.589251  	112.381237 
2660.020909  	112.352199 
2661.452568  	112.355289 
2662.884226  	112.311863 
2664.315884  	112.324054 
2665.747542  	112.361730 
2667.179200  	112.327900 
2668.610858  	112.318616 
2670.042517  	112.326705 
2671.474175  	112.343389 
2672.905833  	112.359340 
2674.337491  	112.306289 
2675.769149  	112.315493 
2677.200808  	112.377456 
2678.632466  	112.364678 
2680.064124  	112.358663 
2681.495782  	112.315528 
2682.927440  	112.252547 
2684.359099  	112.321972 
2685.790757  	112.394214 
2687.222415  	112.390271 
2688.654073  	112.368335 
2690.085731  	112.311865 
2691.517389  	112.288231 
2692.949048  	112.297630 
2694.380706  	112.310490 
2695.812364  	112.337282 
2697.244022  	112.288511 
2698.675680  	112.247399 
2700.107339  	112.296154 
2701.538997  	112.301268 
2702.970655  	112.285659 
2704.402313  	112.277592 
2705.833971  	112.229663 
2707.265630  	112.210153 
2708.697288  	112.203239 
2710.128946  	112.175035 
2711.560604  	112.122941 
2712.992262  	112.051207 
2714.423920  	112.081097 
2715.855579  	112.146457 
2717.287237  	112.127567 
2718.718895  	112.144818 
2720.150553  	112.180932 
2721.582211  	112.181202 
2723.013870  	112.203310 
2724.445528  	112.184723 
2725.877186  	112.142105 
2727.308844  	112.131683 
2728.740502  	112.121158 
2730.172160  	112.130435 
2731.603819  	112.127783 
2733.035477  	112.126309 
2734.467135  	112.162438 
2735.898793  	112.155618 
2737.330451  	112.171790 
2738.762110  	112.237582 
2740.193768  	112.235026 
2741.625426  	112.224123 
2743.057084  	112.239425 
2744.488742  	112.265346 
2745.920401  	112.309862 
2747.352059  	112.272384 
2748.783717  	112.235695 
2750.215375  	112.276440 
2751.647033  	112.252399 
2753.078691  	112.234530 
2754.510350  	112.265322 
2755.942008  	112.219438 
2757.373666  	112.165941 
2758.805324  	112.143133 
2760.236982  	112.116278 
2761.668641  	112.109474 
2763.100299  	112.085732 
2764.531957  	112.061997 
2765.963615  	112.056851 
2767.395273  	112.037580 
2768.826931  	112.004552 
2770.258590  	111.919887 
2771.690248  	111.848704 
2773.121906  	111.844945 
2774.553564  	111.806016 
2775.985222  	111.771562 
2777.416881  	111.765182 
2778.848539  	111.731051 
2780.280197  	111.752614 
2781.711855  	111.788062 
2783.143513  	111.791345 
2784.575172  	111.862476 
2786.006830  	111.926660 
2787.438488  	111.915124 
2788.870146  	111.908587 
2790.301804  	111.950754 
2791.733462  	111.992588 
2793.165121  	111.934657 
2794.596779  	111.896374 
2796.028437  	111.963885 
2797.460095  	111.935673 
2798.891753  	111.882675 
2800.323412  	111.938993 
2801.755070  	111.966391 
2803.186728  	111.990251 
2804.618386  	111.986993 
2806.050044  	111.894270 
2807.481703  	111.875204 
2808.913361  	111.879724 
2810.345019  	111.847776 
2811.776677  	111.873994 
2813.208335  	111.871676 
2814.639993  	111.872215 
2816.071652  	111.912501 
2817.503310  	111.879395 
2818.934968  	111.873818 
2820.366626  	111.899261 
2821.798284  	111.856183 
2823.229943  	111.840097 
2824.661601  	111.844008 
2826.093259  	111.853123 
2827.524917  	111.871690 
2828.956575  	111.798696 
2830.388233  	111.748926 
2831.819892  	111.818619 
2833.251550  	111.873856 
2834.683208  	111.850153 
2836.114866  	111.751554 
2837.546524  	111.667039 
2838.978183  	111.635176 
2840.409841  	111.559755 
2841.841499  	111.492129 
2843.273157  	111.426110 
2844.704815  	111.291388 
2846.136474  	111.175693 
2847.568132  	111.021350 
2848.999790  	110.829467 
2850.431448  	110.745076 
2851.863106  	110.654900 
2853.294764  	110.538555 
2854.726423  	110.502068 
2856.158081  	110.439083 
2857.589739  	110.334863 
2859.021397  	110.204282 
2860.453055  	109.952083 
2861.884714  	109.599032 
2863.316372  	109.171136 
2864.748030  	108.671750 
2866.179688  	108.096016 
2867.611346  	107.412384 
2869.043005  	106.758193 
2870.474663  	106.275779 
2871.906321  	105.948211 
2873.337979  	105.788989 
2874.769637  	105.809602 
2876.201295  	105.961473 
2877.632954  	106.232502 
2879.064612  	106.609913 
2880.496270  	107.033080 
2881.927928  	107.403013 
2883.359586  	107.669580 
2884.791245  	107.854620 
2886.222903  	107.939784 
2887.654561  	107.935882 
2889.086219  	107.872031 
2890.517877  	107.762194 
2891.949535  	107.721724 
2893.381194  	107.766484 
2894.812852  	107.803262 
2896.244510  	107.900263 
2897.676168  	108.069668 
2899.107826  	108.172596 
2900.539485  	108.195832 
2901.971143  	108.187368 
2903.402801  	108.106370 
2904.834459  	107.912220 
2906.266117  	107.666965 
2907.697776  	107.448229 
2909.129434  	107.238775 
2910.561092  	107.035834 
2911.992750  	106.884065 
2913.424408  	106.808356 
2914.856066  	106.793428 
2916.287725  	106.767874 
2917.719383  	106.731031 
2919.151041  	106.700933 
2920.582699  	106.576280 
2922.014357  	106.357002 
2923.446016  	106.099089 
2924.877674  	105.739946 
2926.309332  	105.311411 
2927.740990  	104.913970 
2929.172648  	104.558110 
2930.604306  	104.198127 
2932.035965  	103.860193 
2933.467623  	103.703467 
2934.899281  	103.688297 
2936.330939  	103.650344 
2937.762597  	103.702319 
2939.194256  	103.863511 
2940.625914  	103.985648 
2942.057572  	104.121489 
2943.489230  	104.252549 
2944.920888  	104.312938 
2946.352547  	104.369820 
2947.784205  	104.346977 
2949.215863  	104.202382 
2950.647521  	103.992713 
2952.079179  	103.633322 
2953.510837  	103.101307 
2954.942496  	102.392660 
2956.374154  	101.409685 
2957.805812  	100.179886 
2959.237470  	98.829842 
2960.669128  	97.429032 
2962.100787  	95.955369 
2963.532445  	94.527745 
2964.964103  	93.416767 
2966.395761  	92.687959 
2967.827419  	92.313692 
2969.259078  	92.293709 
2970.690736  	92.576881 
2972.122394  	93.188481 
2973.554052  	94.093641 
2974.985710  	95.127712 
2976.417368  	96.253920 
2977.849027  	97.426154 
2979.280685  	98.545731 
2980.712343  	99.697540 
2982.144001  	100.862039 
2983.575659  	101.905068 
2985.007318  	102.890699 
2986.438976  	103.840328 
2987.870634  	104.711138 
2989.302292  	105.497909 
2990.733950  	106.155581 
2992.165608  	106.765172 
2993.597267  	107.358333 
2995.028925  	107.857450 
2996.460583  	108.321004 
2997.892241  	108.738842 
2999.323899  	109.092588 
3000.755558  	109.443060 
3002.187216  	109.748411 
3003.618874  	110.049460 
3005.050532  	110.316081 
3006.482190  	110.435440 
3007.913849  	110.578586 
3009.345507  	110.780259 
3010.777165  	110.899284 
3012.208823  	111.030931 
3013.640481  	111.205354 
3015.072139  	111.331257 
3016.503798  	111.372830 
3017.935456  	111.358057 
3019.367114  	111.411856 
3020.798772  	111.473940 
3022.230430  	111.431987 
3023.662089  	111.374969 
3025.093747  	111.320407 
3026.525405  	111.293983 
3027.957063  	111.257240 
3029.388721  	111.025497 
3030.820380  	110.694546 
3032.252038  	110.355958 
3033.683696  	109.931158 
3035.115354  	109.543764 
3036.547012  	109.240235 
3037.978670  	108.969122 
3039.410329  	108.762700 
3040.841987  	108.588207 
3042.273645  	108.550233 
3043.705303  	108.736726 
3045.136961  	108.940351 
3046.568620  	109.066609 
3048.000278  	109.206925 
3049.431936  	109.386488 
3050.863594  	109.522192 
3052.295252  	109.474112 
3053.726910  	109.304756 
3055.158569  	109.148570 
3056.590227  	109.015875 
3058.021885  	108.988606 
3059.453543  	109.038523 
3060.885201  	109.059358 
3062.316860  	109.113357 
3063.748518  	109.195030 
3065.180176  	109.300492 
3066.611834  	109.495490 
3068.043492  	109.707026 
3069.475151  	109.910181 
3070.906809  	110.069183 
3072.338467  	110.096980 
3073.770125  	110.163630 
3075.201783  	110.361571 
3076.633441  	110.500694 
3078.065100  	110.554639 
3079.496758  	110.637542 
3080.928416  	110.739855 
3082.360074  	110.845442 
3083.791732  	111.001515 
3085.223391  	111.154722 
3086.655049  	111.242174 
3088.086707  	111.345313 
3089.518365  	111.418480 
3090.950023  	111.413913 
3092.381682  	111.539826 
3093.813340  	111.735584 
3095.244998  	111.762025 
3096.676656  	111.733555 
3098.108314  	111.736844 
3099.539972  	111.731117 
3100.971631  	111.757611 
3102.403289  	111.759745 
3103.834947  	111.742848 
3105.266605  	111.776712 
3106.698263  	111.793186 
3108.129922  	111.768912 
3109.561580  	111.748720 
3110.993238  	111.774261 
3112.424896  	111.825312 
3113.856554  	111.822881 
3115.288212  	111.834355 
3116.719871  	111.884414 
3118.151529  	111.905387 
3119.583187  	111.975481 
3121.014845  	112.068545 
3122.446503  	112.108157 
3123.878162  	112.130475 
3125.309820  	112.092452 
3126.741478  	112.086660 
3128.173136  	112.212651 
3129.604794  	112.301624 
3131.036453  	112.336040 
3132.468111  	112.426890 
3133.899769  	112.544020 
3135.331427  	112.602134 
3136.763085  	112.556599 
3138.194743  	112.556675 
3139.626402  	112.647276 
3141.058060  	112.640762 
3142.489718  	112.604768 
3143.921376  	112.641689 
3145.353034  	112.692048 
3146.784693  	112.761769 
3148.216351  	112.766822 
3149.648009  	112.727518 
3151.079667  	112.739715 
3152.511325  	112.700158 
3153.942983  	112.685976 
3155.374642  	112.753018 
3156.806300  	112.761867 
3158.237958  	112.786907 
3159.669616  	112.823385 
3161.101274  	112.815028 
3162.532933  	112.836462 
3163.964591  	112.800475 
3165.396249  	112.780912 
3166.827907  	112.844505 
3168.259565  	112.811716 
3169.691224  	112.829998 
3171.122882  	112.924122 
3172.554540  	112.867686 
3173.986198  	112.850813 
3175.417856  	112.921693 
3176.849514  	112.910120 
3178.281173  	112.895831 
3179.712831  	112.854188 
3181.144489  	112.796737 
3182.576147  	112.815129 
3184.007805  	112.813798 
3185.439464  	112.800941 
3186.871122  	112.776485 
3188.302780  	112.699821 
3189.734438  	112.703719 
3191.166096  	112.784646 
3192.597755  	112.859983 
3194.029413  	112.903711 
3195.461071  	112.874334 
3196.892729  	112.868605 
3198.324387  	112.886242 
3199.756045  	112.839545 
3201.187704  	112.819700 
3202.619362  	112.825339 
3204.051020  	112.828555 
3205.482678  	112.860365 
3206.914336  	112.868577 
3208.345995  	112.911204 
3209.777653  	112.994555 
3211.209311  	113.020455 
3212.640969  	113.034588 
3214.072627  	113.030779 
3215.504285  	113.019348 
3216.935944  	113.031637 
3218.367602  	112.970638 
3219.799260  	112.946632 
3221.230918  	113.034282 
3222.662576  	113.058874 
3224.094235  	113.036594 
3225.525893  	113.014665 
3226.957551  	112.994070 
3228.389209  	113.040873 
3229.820867  	113.062769 
3231.252526  	113.046437 
3232.684184  	113.056977 
3234.115842  	113.032712 
3235.547500  	113.046508 
3236.979158  	113.106371 
3238.410816  	113.101681 
3239.842475  	113.108958 
3241.274133  	113.132826 
3242.705791  	113.099618 
3244.137449  	113.056168 
3245.569107  	113.039475 
3247.000766  	113.049077 
3248.432424  	113.037788 
3249.864082  	113.064072 
3251.295740  	113.187265 
3252.727398  	113.194143 
3254.159057  	113.089213 
3255.590715  	113.076521 
3257.022373  	113.060338 
3258.454031  	113.058241 
3259.885689  	113.147452 
3261.317347  	113.154640 
3262.749006  	113.097864 
3264.180664  	113.060723 
3265.612322  	113.005466 
3267.043980  	113.042099 
3268.475638  	113.164936 
3269.907297  	113.189368 
3271.338955  	113.120103 
3272.770613  	113.103040 
3274.202271  	113.159757 
3275.633929  	113.172859 
3277.065587  	113.139622 
3278.497246  	113.142562 
3279.928904  	113.151302 
3281.360562  	113.158458 
3282.792220  	113.150395 
3284.223878  	113.093703 
3285.655537  	113.082199 
3287.087195  	113.120404 
3288.518853  	113.140460 
3289.950511  	113.163432 
3291.382169  	113.153182 
3292.813828  	113.129072 
3294.245486  	113.148370 
3295.677144  	113.133470 
3297.108802  	113.105709 
3298.540460  	113.150590 
3299.972118  	113.192638 
3301.403777  	113.141777 
3302.835435  	113.051000 
3304.267093  	113.039223 
3305.698751  	113.090688 
3307.130409  	113.134151 
3308.562068  	113.184561 
3309.993726  	113.193731 
3311.425384  	113.167791 
3312.857042  	113.192606 
3314.288700  	113.200961 
3315.720359  	113.170218 
3317.152017  	113.170607 
3318.583675  	113.200310 
3320.015333  	113.236381 
3321.446991  	113.212823 
3322.878649  	113.190964 
3324.310308  	113.284889 
3325.741966  	113.347126 
3327.173624  	113.321263 
3328.605282  	113.310651 
3330.036940  	113.297062 
3331.468599  	113.313247 
3332.900257  	113.330962 
3334.331915  	113.282419 
3335.763573  	113.254613 
3337.195231  	113.235186 
3338.626889  	113.237624 
3340.058548  	113.321268 
3341.490206  	113.378373 
3342.921864  	113.403565 
3344.353522  	113.366294 
3345.785180  	113.257480 
3347.216839  	113.331926 
3348.648497  	113.457621 
3350.080155  	113.350134 
3351.511813  	113.280718 
3352.943471  	113.397643 
3354.375130  	113.479730 
3355.806788  	113.440233 
3357.238446  	113.348871 
3358.670104  	113.323388 
3360.101762  	113.342387 
3361.533420  	113.323482 
3362.965079  	113.317755 
3364.396737  	113.346000 
3365.828395  	113.411431 
3367.260053  	113.442565 
3368.691711  	113.355039 
3370.123370  	113.330928 
3371.555028  	113.420943 
3372.986686  	113.477224 
3374.418344  	113.492543 
3375.850002  	113.431653 
3377.281660  	113.369535 
3378.713319  	113.417190 
3380.144977  	113.437761 
3381.576635  	113.427304 
3383.008293  	113.416148 
3384.439951  	113.368656 
3385.871610  	113.417399 
3387.303268  	113.460433 
3388.734926  	113.390578 
3390.166584  	113.376506 
3391.598242  	113.355725 
3393.029901  	113.307847 
3394.461559  	113.328779 
3395.893217  	113.309751 
3397.324875  	113.334468 
3398.756533  	113.433871 
3400.188191  	113.403120 
3401.619850  	113.330533 
3403.051508  	113.328961 
3404.483166  	113.339637 
3405.914824  	113.359608 
3407.346482  	113.382157 
3408.778141  	113.403046 
3410.209799  	113.382034 
3411.641457  	113.349242 
3413.073115  	113.391184 
3414.504773  	113.406266 
3415.936432  	113.438027 
3417.368090  	113.531337 
3418.799748  	113.466854 
3420.231406  	113.381056 
3421.663064  	113.445582 
3423.094722  	113.427905 
3424.526381  	113.347013 
3425.958039  	113.332046 
3427.389697  	113.370993 
3428.821355  	113.438043 
3430.253013  	113.389775 
3431.684672  	113.309166 
3433.116330  	113.347974 
3434.547988  	113.335413 
3435.979646  	113.278532 
3437.411304  	113.316153 
3438.842962  	113.388524 
3440.274621  	113.391789 
3441.706279  	113.272114 
3443.137937  	113.194415 
3444.569595  	113.248758 
3446.001253  	113.268740 
3447.432912  	113.317679 
3448.864570  	113.384237 
3450.296228  	113.362465 
3451.727886  	113.411040 
3453.159544  	113.410308 
3454.591203  	113.269248 
3456.022861  	113.287741 
3457.454519  	113.393861 
3458.886177  	113.363380 
3460.317835  	113.321198 
3461.749493  	113.336259 
3463.181152  	113.337960 
3464.612810  	113.309415 
3466.044468  	113.317347 
3467.476126  	113.351704 
3468.907784  	113.337302 
3470.339443  	113.352842 
3471.771101  	113.349702 
3473.202759  	113.258922 
3474.634417  	113.263498 
3476.066075  	113.319989 
3477.497734  	113.310513 
3478.929392  	113.255347 
3480.361050  	113.083955 
3481.792708  	113.026199 
3483.224366  	113.189609 
3484.656024  	113.213191 
3486.087683  	113.188363 
3487.519341  	113.265929 
3488.950999  	113.252045 
3490.382657  	113.211277 
3491.814315  	113.232207 
3493.245974  	113.287425 
3494.677632  	113.324231 
3496.109290  	113.236188 
3497.540948  	113.207949 
3498.972606  	113.261624 
3500.404264  	113.160328 
3501.835923  	113.076206 
3503.267581  	113.117543 
3504.699239  	113.125780 
3506.130897  	113.120099 
3507.562555  	113.110595 
3508.994214  	113.129510 
3510.425872  	113.108442 
3511.857530  	112.982193 
3513.289188  	113.029472 
3514.720846  	113.120061 
3516.152505  	112.962182 
3517.584163  	112.868483 
3519.015821  	112.912934 
3520.447479  	112.845488 
3521.879137  	112.776566 
3523.310795  	112.790008 
3524.742454  	112.772397 
3526.174112  	112.658339 
3527.605770  	112.541609 
3529.037428  	112.551251 
3530.469086  	112.609447 
3531.900745  	112.698172 
3533.332403  	112.748525 
3534.764061  	112.616643 
3536.195719  	112.593260 
3537.627377  	112.743187 
3539.059035  	112.724718 
3540.490694  	112.738159 
3541.922352  	112.830476 
3543.354010  	112.716173 
3544.785668  	112.635412 
3546.217326  	112.814328 
3547.648985  	112.955131 
3549.080643  	112.914207 
3550.512301  	112.860980 
3551.943959  	112.875429 
3553.375617  	112.890552 
3554.807276  	112.950628 
3556.238934  	113.045670 
3557.670592  	112.996382 
3559.102250  	112.933235 
3560.533908  	112.967073 
3561.965566  	112.928506 
3563.397225  	112.842891 
3564.828883  	112.665668 
3566.260541  	112.476477 
3567.692199  	112.759888 
3569.123857  	113.100877 
3570.555516  	113.051193 
3571.987174  	112.994791 
3573.418832  	112.920500 
3574.850490  	112.814066 
3576.282148  	112.813392 
3577.713807  	112.878673 
3579.145465  	112.984568 
3580.577123  	113.032428 
3582.008781  	113.037717 
3583.440439  	113.090092 
3584.872097  	112.937373 
3586.303756  	112.697088 
3587.735414  	112.916562 
3589.167072  	113.287484 
3590.598730  	113.224662 
3592.030388  	113.045038 
3593.462047  	112.910746 
3594.893705  	112.899688 
3596.325363  	113.048112 
3597.757021  	113.115005 
3599.188679  	112.998160 
3600.620337  	113.048401 
3602.051996  	113.307866 
3603.483654  	113.281671 
3604.915312  	113.145504 
3606.346970  	113.147600 
3607.778628  	113.081949 
3609.210287  	113.209446 
3610.641945  	113.384264 
3612.073603  	113.124873 
3613.505261  	113.082008 
3614.936919  	113.377377 
3616.368578  	113.188756 
3617.800236  	112.894898 
3619.231894  	113.053796 
3620.663552  	113.413381 
3622.095210  	113.453582 
3623.526868  	113.297835 
3624.958527  	113.238631 
3626.390185  	113.010112 
3627.821843  	112.442773 
3629.253501  	112.551327 
3630.685159  	113.364875 
3632.116818  	113.176289 
3633.548476  	113.008421 
3634.980134  	113.183173 
3636.411792  	113.225956 
3637.843450  	113.256080 
3639.275109  	113.301141 
3640.706767  	113.162911 
3642.138425  	113.121366 
3643.570083  	113.248197 
3645.001741  	113.099205 
3646.433399  	112.704063 
3647.865058  	112.566880 
3649.296716  	112.650706 
3650.728374  	112.836278 
3652.160032  	113.404797 
3653.591690  	113.301274 
3655.023349  	112.807625 
3656.455007  	112.858712 
3657.886665  	113.171549 
3659.318323  	113.008895 
3660.749981  	112.966323 
3662.181639  	113.053094 
3663.613298  	113.077587 
3665.044956  	113.105793 
3666.476614  	112.965818 
3667.908272  	112.670946 
3669.339930  	112.453718 
3670.771589  	112.741498 
3672.203247  	112.980609 
3673.634905  	112.472905 
3675.066563  	112.093128 
3676.498221  	113.023271 
3677.929880  	113.168284 
3679.361538  	112.995509 
3680.793196  	113.183411 
3682.224854  	113.093884 
3683.656512  	113.018406 
3685.088170  	113.039103 
3686.519829  	112.711686 
3687.951487  	112.622516 
3689.383145  	113.145631 
3690.814803  	113.269170 
3692.246461  	113.302438 
3693.678120  	113.367158 
3695.109778  	113.187594 
3696.541436  	113.154329 
3697.973094  	113.286765 
3699.404752  	113.139314 
3700.836411  	112.933689 
3702.268069  	113.150721 
3703.699727  	113.438691 
3705.131385  	113.401767 
3706.563043  	113.292237 
3707.994701  	113.149660 
3709.426360  	112.965466 
3710.858018  	112.915206 
3712.289676  	113.084740 
3713.721334  	113.497450 
3715.152992  	113.702800 
3716.584651  	113.493514 
3718.016309  	113.335350 
3719.447967  	113.367937 
3720.879625  	113.158925 
3722.311283  	112.977385 
3723.742941  	113.140246 
3725.174600  	113.171287 
3726.606258  	113.147820 
3728.037916  	113.320834 
3729.469574  	113.269077 
3730.901232  	113.101842 
3732.332891  	113.162963 
3733.764549  	113.009959 
3735.196207  	112.705943 
3736.627865  	113.373626 
3738.059523  	113.806630 
3739.491182  	113.522726 
3740.922840  	113.476581 
3742.354498  	113.174465 
3743.786156  	112.560223 
3745.217814  	113.365970 
3746.649472  	113.817347 
3748.081131  	113.094253 
3749.512789  	112.868488 
3750.944447  	113.128999 
3752.376105  	113.274125 
3753.807763  	113.727750 
3755.239422  	113.698445 
3756.671080  	113.512798 
3758.102738  	113.557465 
3759.534396  	113.445222 
3760.966054  	113.541895 
3762.397712  	113.729963 
3763.829371  	113.446574 
3765.261029  	113.286234 
3766.692687  	113.506111 
3768.124345  	113.439789 
3769.556003  	113.389453 
3770.987662  	113.666825 
3772.419320  	113.761976 
3773.850978  	113.675962 
3775.282636  	113.674106 
3776.714294  	113.693754 
3778.145953  	113.548047 
3779.577611  	113.478631 
3781.009269  	113.664872 
3782.440927  	113.583534 
3783.872585  	113.350762 
3785.304243  	113.394891 
3786.735902  	113.548239 
3788.167560  	113.531558 
3789.599218  	113.426980 
3791.030876  	113.412122 
3792.462534  	113.568055 
3793.894193  	113.607639 
3795.325851  	113.454301 
3796.757509  	113.446306 
3798.189167  	113.426571 
3799.620825  	113.036094 
3801.052484  	112.749680 
3802.484142  	113.421316 
3803.915800  	113.705327 
3805.347458  	113.256291 
3806.779116  	113.247109 
3808.210774  	113.831387 
3809.642433  	113.671268 
3811.074091  	113.424138 
3812.505749  	113.465195 
3813.937407  	113.256685 
3815.369065  	113.052862 
3816.800724  	113.541893 
3818.232382  	113.530500 
3819.664040  	112.896505 
3821.095698  	112.809763 
3822.527356  	113.673825 
3823.959014  	113.625298 
3825.390673  	113.347416 
3826.822331  	113.512210 
3828.253989  	113.608109 
3829.685647  	113.382777 
3831.117305  	113.304623 
3832.548964  	113.405436 
3833.980622  	113.422451 
3835.412280  	113.295556 
3836.843938  	113.120391 
3838.275596  	113.118097 
3839.707255  	113.263038 
3841.138913  	113.355103 
3842.570571  	113.392451 
3844.002229  	113.464799 
3845.433887  	113.598896 
3846.865545  	113.519282 
3848.297204  	113.346914 
3849.728862  	113.364097 
3851.160520  	113.109528 
3852.592178  	112.468224 
3854.023836  	112.864421 
3855.455495  	113.715111 
3856.887153  	113.669430 
3858.318811  	113.685198 
3859.750469  	113.570523 
3861.182127  	113.386290 
3862.613786  	113.306074 
3864.045444  	113.101205 
3865.477102  	113.280142 
3866.908760  	113.547306 
3868.340418  	113.088863 
3869.772076  	112.887410 
3871.203735  	113.604606 
3872.635393  	113.495425 
3874.067051  	113.268129 
3875.498709  	113.581249 
3876.930367  	113.530681 
3878.362026  	113.177641 
3879.793684  	113.078571 
3881.225342  	113.400021 
3882.657000  	113.462632 
3884.088658  	113.026714 
3885.520316  	112.833448 
3886.951975  	113.431351 
3888.383633  	113.493041 
3889.815291  	113.111228 
3891.246949  	113.113334 
3892.678607  	113.472939 
3894.110266  	113.534077 
3895.541924  	113.455774 
3896.973582  	113.312044 
3898.405240  	113.156376 
3899.836898  	113.241596 
3901.268557  	113.362008 
3902.700215  	113.186992 
3904.131873  	113.136209 
3905.563531  	113.425836 
3906.995189  	113.562579 
3908.426847  	113.501662 
3909.858506  	113.417388 
3911.290164  	113.402698 
3912.721822  	113.517464 
3914.153480  	113.527487 
3915.585138  	113.343282 
3917.016797  	113.286669 
3918.448455  	113.363916 
3919.880113  	113.358519 
3921.311771  	113.396763 
3922.743429  	113.344902 
3924.175088  	113.216467 
3925.606746  	113.347550 
3927.038404  	113.471406 
3928.470062  	113.391103 
3929.901720  	113.390960 
3931.333378  	113.381026 
3932.765037  	113.343298 
3934.196695  	113.481091 
3935.628353  	113.493716 
3937.060011  	113.390393 
3938.491669  	113.449363 
3939.923328  	113.436191 
3941.354986  	113.240361 
3942.786644  	113.205137 
3944.218302  	113.362006 
3945.649960  	113.411023 
3947.081618  	113.400576 
3948.513277  	113.462550 
3949.944935  	113.492212 
3951.376593  	113.443230 
3952.808251  	113.460279 
3954.239909  	113.490193 
3955.671568  	113.445717 
3957.103226  	113.460562 
3958.534884  	113.508932 
3959.966542  	113.457216 
3961.398200  	113.434362 
3962.829859  	113.540425 
3964.261517  	113.627206 
3965.693175  	113.582301 
3967.124833  	113.489501 
3968.556491  	113.451890 
3969.988149  	113.416557 
3971.419808  	113.373208 
3972.851466  	113.415341 
3974.283124  	113.462302 
3975.714782  	113.417286 
3977.146440  	113.365075 
3978.578099  	113.383126 
3980.009757  	113.443020 
3981.441415  	113.421885 
3982.873073  	113.304511 
3984.304731  	113.304866 
3985.736389  	113.447039 
3987.168048  	113.483598 
3988.599706  	113.364251 
3990.031364  	113.310070 
3991.463022  	113.398530 
3992.894680  	113.438364 
3994.326339  	113.412439 
3995.757997  	113.477942 
3997.189655  	113.524892 
3998.621313  	113.444276 
4000.052971  	113.380788 