##TITLE=No Description
##DATA TYPE=INFRARED SPECTRUM
##XUNITS=1/CM
##YUNITS=Abs
399.432634  	0.039078 
400.864292  	0.078191 
402.295950  	0.064178 
403.727608  	0.066865 
405.159267  	0.092194 
406.590925  	0.079830 
408.022583  	0.053840 
409.454241  	0.051819 
410.885899  	0.052623 
412.317558  	0.036021 
413.749216  	0.031353 
415.180874  	0.061080 
416.612532  	0.084250 
418.044190  	0.079209 
419.475848  	0.051134 
420.907507  	0.031164 
422.339165  	0.033347 
423.770823  	0.050499 
425.202481  	0.052464 
426.634139  	0.038575 
428.065798  	0.026213 
429.497456  	0.025429 
430.929114  	0.035390 
432.360772  	0.039974 
433.792430  	0.037519 
435.224089  	0.036630 
436.655747  	0.033287 
438.087405  	0.032369 
439.519063  	0.033008 
440.950721  	0.028682 
442.382379  	0.030763 
443.814038  	0.042617 
445.245696  	0.042617 
446.677354  	0.026740 
448.109012  	0.019854 
449.540670  	0.031806 
450.972329  	0.038317 
452.403987  	0.030824 
453.835645  	0.024570 
455.267303  	0.021390 
456.698961  	0.021269 
458.130619  	0.030658 
459.562278  	0.034845 
460.993936  	0.030848 
462.425594  	0.027906 
463.857252  	0.030624 
465.288910  	0.037258 
466.720569  	0.039679 
468.152227  	0.038404 
469.583885  	0.041421 
471.015543  	0.043561 
472.447201  	0.041100 
473.878860  	0.039769 
475.310518  	0.039315 
476.742176  	0.037352 
478.173834  	0.035365 
479.605492  	0.037682 
481.037150  	0.042620 
482.468809  	0.042015 
483.900467  	0.040704 
485.332125  	0.049509 
486.763783  	0.059932 
488.195441  	0.060421 
489.627100  	0.054873 
491.058758  	0.053674 
492.490416  	0.056729 
493.922074  	0.056227 
495.353732  	0.054467 
496.785391  	0.054052 
498.217049  	0.052587 
499.648707  	0.051550 
501.080365  	0.049473 
502.512023  	0.047614 
503.943681  	0.051304 
505.375340  	0.054011 
506.806998  	0.053954 
508.238656  	0.055309 
509.670314  	0.054143 
511.101972  	0.051606 
512.533631  	0.051154 
513.965289  	0.050005 
515.396947  	0.050664 
516.828605  	0.052954 
518.260263  	0.052127 
519.691921  	0.053181 
521.123580  	0.056694 
522.555238  	0.058765 
523.986896  	0.063007 
525.418554  	0.069449 
526.850212  	0.072809 
528.281871  	0.074375 
529.713529  	0.077775 
531.145187  	0.083929 
532.576845  	0.091267 
534.008503  	0.096864 
535.440162  	0.100620 
536.871820  	0.105577 
538.303478  	0.112964 
539.735136  	0.119894 
541.166794  	0.125956 
542.598452  	0.133956 
544.030111  	0.142304 
545.461769  	0.148954 
546.893427  	0.155531 
548.325085  	0.163247 
549.756743  	0.171691 
551.188402  	0.176929 
552.620060  	0.176885 
554.051718  	0.175355 
555.483376  	0.171843 
556.915034  	0.164281 
558.346692  	0.155089 
559.778351  	0.146740 
561.210009  	0.139206 
562.641667  	0.128163 
564.073325  	0.112512 
565.504983  	0.096490 
566.936642  	0.078386 
568.368300  	0.058726 
569.799958  	0.044877 
571.231616  	0.038794 
572.663274  	0.038974 
574.094933  	0.042403 
575.526591  	0.044568 
576.958249  	0.045200 
578.389907  	0.045228 
579.821565  	0.042819 
581.253223  	0.039292 
582.684882  	0.037547 
584.116540  	0.036618 
585.548198  	0.034758 
586.979856  	0.032177 
588.411514  	0.030509 
589.843173  	0.029482 
591.274831  	0.027597 
592.706489  	0.026242 
594.138147  	0.025874 
595.569805  	0.024365 
597.001464  	0.022458 
598.433122  	0.021726 
599.864780  	0.021468 
601.296438  	0.021145 
602.728096  	0.020601 
604.159754  	0.019599 
605.591413  	0.018336 
607.023071  	0.017618 
608.454729  	0.017889 
609.886387  	0.017634 
611.318045  	0.015967 
612.749704  	0.014855 
614.181362  	0.015312 
615.613020  	0.016056 
617.044678  	0.015837 
618.476336  	0.014695 
619.907994  	0.014582 
621.339653  	0.016310 
622.771311  	0.017998 
624.202969  	0.018824 
625.634627  	0.019682 
627.066285  	0.021078 
628.497944  	0.022777 
629.929602  	0.024604 
631.361260  	0.026786 
632.792918  	0.027850 
634.224576  	0.026592 
635.656235  	0.025307 
637.087893  	0.024710 
638.519551  	0.023133 
639.951209  	0.020859 
641.382867  	0.018613 
642.814525  	0.017296 
644.246184  	0.017893 
645.677842  	0.018650 
647.109500  	0.019078 
648.541158  	0.020508 
649.972816  	0.020699 
651.404475  	0.019473 
652.836133  	0.020136 
654.267791  	0.021153 
655.699449  	0.019954 
657.131107  	0.018926 
658.562766  	0.019719 
659.994424  	0.020531 
661.426082  	0.020510 
662.857740  	0.020633 
664.289398  	0.020976 
665.721056  	0.022222 
667.152715  	0.027750 
668.584373  	0.033738 
670.016031  	0.028570 
671.447689  	0.025592 
672.879347  	0.026378 
674.311006  	0.027471 
675.742664  	0.028390 
677.174322  	0.030177 
678.605980  	0.031657 
680.037638  	0.032752 
681.469296  	0.034335 
682.900955  	0.037365 
684.332613  	0.041758 
685.764271  	0.045239 
687.195929  	0.047152 
688.627587  	0.047821 
690.059246  	0.046970 
691.490904  	0.046008 
692.922562  	0.045922 
694.354220  	0.046752 
695.785878  	0.048763 
697.217537  	0.051567 
698.649195  	0.054855 
700.080853  	0.058933 
701.512511  	0.063465 
702.944169  	0.067571 
704.375827  	0.070223 
705.807486  	0.071296 
707.239144  	0.071348 
708.670802  	0.070606 
710.102460  	0.069213 
711.534118  	0.066466 
712.965777  	0.062999 
714.397435  	0.060712 
715.829093  	0.058897 
717.260751  	0.056909 
718.692409  	0.056087 
720.124067  	0.056599 
721.555726  	0.057739 
722.987384  	0.059571 
724.419042  	0.062122 
725.850700  	0.064562 
727.282358  	0.065830 
728.714017  	0.066223 
730.145675  	0.066606 
731.577333  	0.066921 
733.008991  	0.066743 
734.440649  	0.065442 
735.872308  	0.063610 
737.303966  	0.063155 
738.735624  	0.064158 
740.167282  	0.065713 
741.598940  	0.067520 
743.030598  	0.069425 
744.462257  	0.072368 
745.893915  	0.076688 
747.325573  	0.081381 
748.757231  	0.086437 
750.188889  	0.091413 
751.620548  	0.096097 
753.052206  	0.101388 
754.483864  	0.105920 
755.915522  	0.109149 
757.347180  	0.112312 
758.778839  	0.114184 
760.210497  	0.114480 
761.642155  	0.114572 
763.073813  	0.114498 
764.505471  	0.114652 
765.937129  	0.115141 
767.368788  	0.114954 
768.800446  	0.113067 
770.232104  	0.108564 
771.663762  	0.102139 
773.095420  	0.094984 
774.527079  	0.087359 
775.958737  	0.079913 
777.390395  	0.073363 
778.822053  	0.068190 
780.253711  	0.064719 
781.685369  	0.062225 
783.117028  	0.059660 
784.548686  	0.057273 
785.980344  	0.056012 
787.412002  	0.055597 
788.843660  	0.054964 
790.275319  	0.054491 
791.706977  	0.054781 
793.138635  	0.055156 
794.570293  	0.055914 
796.001951  	0.057888 
797.433610  	0.060961 
798.865268  	0.065685 
800.296926  	0.072611 
801.728584  	0.081578 
803.160242  	0.092471 
804.591900  	0.103820 
806.023559  	0.114658 
807.455217  	0.125444 
808.886875  	0.135331 
810.318533  	0.143924 
811.750191  	0.150622 
813.181850  	0.154319 
814.613508  	0.156109 
816.045166  	0.155900 
817.476824  	0.153762 
818.908482  	0.152459 
820.340141  	0.153239 
821.771799  	0.156420 
823.203457  	0.162535 
824.635115  	0.170833 
826.066773  	0.179621 
827.498431  	0.185284 
828.930090  	0.185598 
830.361748  	0.181732 
831.793406  	0.173629 
833.225064  	0.161963 
834.656722  	0.149090 
836.088381  	0.136527 
837.520039  	0.124984 
838.951697  	0.114357 
840.383355  	0.105210 
841.815013  	0.098078 
843.246671  	0.091616 
844.678330  	0.084974 
846.109988  	0.078108 
847.541646  	0.070538 
848.973304  	0.062734 
850.404962  	0.055198 
851.836621  	0.047632 
853.268279  	0.040565 
854.699937  	0.034607 
856.131595  	0.029295 
857.563253  	0.024685 
858.994912  	0.021677 
860.426570  	0.020145 
861.858228  	0.019263 
863.289886  	0.018982 
864.721544  	0.019494 
866.153202  	0.020578 
867.584861  	0.022400 
869.016519  	0.025388 
870.448177  	0.029172 
871.879835  	0.033320 
873.311493  	0.037841 
874.743152  	0.042630 
876.174810  	0.047930 
877.606468  	0.053796 
879.038126  	0.059766 
880.469784  	0.065728 
881.901443  	0.071507 
883.333101  	0.076846 
884.764759  	0.080921 
886.196417  	0.082507 
887.628075  	0.081436 
889.059733  	0.077042 
890.491392  	0.068618 
891.923050  	0.057306 
893.354708  	0.045047 
894.786366  	0.034126 
896.218024  	0.025993 
897.649683  	0.020654 
899.081341  	0.017836 
900.512999  	0.016849 
901.944657  	0.016384 
903.376315  	0.016028 
904.807973  	0.016235 
906.239632  	0.017000 
907.671290  	0.017834 
909.102948  	0.018717 
910.534606  	0.020255 
911.966264  	0.022313 
913.397923  	0.024474 
914.829581  	0.026914 
916.261239  	0.028875 
917.692897  	0.029964 
919.124555  	0.030843 
920.556214  	0.030610 
921.987872  	0.028942 
923.419530  	0.027087 
924.851188  	0.025217 
926.282846  	0.024026 
927.714504  	0.024535 
929.146163  	0.025904 
930.577821  	0.027794 
932.009479  	0.030490 
933.441137  	0.033202 
934.872795  	0.035152 
936.304454  	0.036020 
937.736112  	0.036528 
939.167770  	0.037636 
940.599428  	0.038740 
942.031086  	0.039427 
943.462744  	0.039972 
944.894403  	0.039891 
946.326061  	0.038922 
947.757719  	0.037472 
949.189377  	0.036126 
950.621035  	0.035395 
952.052694  	0.035302 
953.484352  	0.036260 
954.916010  	0.038734 
956.347668  	0.041673 
957.779326  	0.043941 
959.210985  	0.045415 
960.642643  	0.046046 
962.074301  	0.045986 
963.505959  	0.045791 
964.937617  	0.045629 
966.369275  	0.045265 
967.800934  	0.044984 
969.232592  	0.045228 
970.664250  	0.045730 
972.095908  	0.046296 
973.527566  	0.047238 
974.959225  	0.048581 
976.390883  	0.050205 
977.822541  	0.052223 
979.254199  	0.054792 
980.685857  	0.057924 
982.117516  	0.061620 
983.549174  	0.066073 
984.980832  	0.071210 
986.412490  	0.077244 
987.844148  	0.084755 
989.275806  	0.092650 
990.707465  	0.099759 
992.139123  	0.106042 
993.570781  	0.110221 
995.002439  	0.112670 
996.434097  	0.115777 
997.865756  	0.120548 
999.297414  	0.128685 
1000.729072  	0.141205 
1002.160730  	0.156213 
1003.592388  	0.171110 
1005.024046  	0.181611 
1006.455705  	0.186145 
1007.887363  	0.188813 
1009.319021  	0.193971 
1010.750679  	0.207756 
1012.182337  	0.231430 
1013.613996  	0.247942 
1015.045654  	0.235271 
1016.477312  	0.194245 
1017.908970  	0.145977 
1019.340628  	0.105910 
1020.772287  	0.077314 
1022.203945  	0.057827 
1023.635603  	0.043368 
1025.067261  	0.032452 
1026.498919  	0.025847 
1027.930577  	0.022915 
1029.362236  	0.021981 
1030.793894  	0.022257 
1032.225552  	0.023263 
1033.657210  	0.024672 
1035.088868  	0.026601 
1036.520527  	0.028595 
1037.952185  	0.030321 
1039.383843  	0.032098 
1040.815501  	0.033881 
1042.247159  	0.035697 
1043.678818  	0.037663 
1045.110476  	0.039511 
1046.542134  	0.041157 
1047.973792  	0.042937 
1049.405450  	0.045074 
1050.837108  	0.046926 
1052.268767  	0.048325 
1053.700425  	0.050203 
1055.132083  	0.052311 
1056.563741  	0.054334 
1057.995399  	0.056880 
1059.427058  	0.059646 
1060.858716  	0.062761 
1062.290374  	0.066424 
1063.722032  	0.070068 
1065.153690  	0.074603 
1066.585348  	0.080287 
1068.017007  	0.086615 
1069.448665  	0.094646 
1070.880323  	0.104361 
1072.311981  	0.116001 
1073.743639  	0.131048 
1075.175298  	0.150329 
1076.606956  	0.175322 
1078.038614  	0.200257 
1079.470272  	0.211471 
1080.901930  	0.203808 
1082.333589  	0.181116 
1083.765247  	0.151857 
1085.196905  	0.124102 
1086.628563  	0.102303 
1088.060221  	0.088782 
1089.491879  	0.082827 
1090.923538  	0.082501 
1092.355196  	0.086653 
1093.786854  	0.093290 
1095.218512  	0.101322 
1096.650170  	0.111480 
1098.081829  	0.122516 
1099.513487  	0.133043 
1100.945145  	0.140971 
1102.376803  	0.143326 
1103.808461  	0.142133 
1105.240120  	0.140266 
1106.671778  	0.139006 
1108.103436  	0.139238 
1109.535094  	0.138944 
1110.966752  	0.137052 
1112.398410  	0.134421 
1113.830069  	0.131333 
1115.261727  	0.129279 
1116.693385  	0.128521 
1118.125043  	0.128361 
1119.556701  	0.129626 
1120.988360  	0.131797 
1122.420018  	0.134636 
1123.851676  	0.139043 
1125.283334  	0.144370 
1126.714992  	0.150537 
1128.146650  	0.157132 
1129.578309  	0.163568 
1131.009967  	0.171061 
1132.441625  	0.178778 
1133.873283  	0.186500 
1135.304941  	0.195490 
1136.736600  	0.204522 
1138.168258  	0.214253 
1139.599916  	0.225105 
1141.031574  	0.235642 
1142.463232  	0.246984 
1143.894891  	0.258178 
1145.326549  	0.268965 
1146.758207  	0.280904 
1148.189865  	0.291601 
1149.621523  	0.302038 
1151.053181  	0.313186 
1152.484840  	0.322497 
1153.916498  	0.331532 
1155.348156  	0.338728 
1156.779814  	0.342531 
1158.211472  	0.344575 
1159.643131  	0.341154 
1161.074789  	0.332055 
1162.506447  	0.318324 
1163.938105  	0.298921 
1165.369763  	0.276680 
1166.801421  	0.252014 
1168.233080  	0.227926 
1169.664738  	0.210116 
1171.096396  	0.200238 
1172.528054  	0.201033 
1173.959712  	0.213372 
1175.391371  	0.231728 
1176.823029  	0.251399 
1178.254687  	0.268905 
1179.686345  	0.282796 
1181.118003  	0.297061 
1182.549662  	0.311033 
1183.981320  	0.322647 
1185.412978  	0.330911 
1186.844636  	0.331822 
1188.276294  	0.327744 
1189.707952  	0.320085 
1191.139611  	0.308002 
1192.571269  	0.295493 
1194.002927  	0.281643 
1195.434585  	0.265758 
1196.866243  	0.250010 
1198.297902  	0.233477 
1199.729560  	0.217419 
1201.161218  	0.202275 
1202.592876  	0.187695 
1204.024534  	0.176727 
1205.456193  	0.170953 
1206.887851  	0.172501 
1208.319509  	0.183889 
1209.751167  	0.201993 
1211.182825  	0.222894 
1212.614483  	0.243401 
1214.046142  	0.258484 
1215.477800  	0.268554 
1216.909458  	0.273925 
1218.341116  	0.274501 
1219.772774  	0.273555 
1221.204433  	0.269737 
1222.636091  	0.263942 
1224.067749  	0.258440 
1225.499407  	0.251312 
1226.931065  	0.244284 
1228.362723  	0.237577 
1229.794382  	0.229804 
1231.226040  	0.222956 
1232.657698  	0.215891 
1234.089356  	0.208520 
1235.521014  	0.202377 
1236.952673  	0.195758 
1238.384331  	0.189316 
1239.815989  	0.183338 
1241.247647  	0.176739 
1242.679305  	0.170871 
1244.110964  	0.164667 
1245.542622  	0.157380 
1246.974280  	0.150133 
1248.405938  	0.141764 
1249.837596  	0.132618 
1251.269254  	0.123014 
1252.700913  	0.112122 
1254.132571  	0.101085 
1255.564229  	0.089594 
1256.995887  	0.077303 
1258.427545  	0.065535 
1259.859204  	0.054093 
1261.290862  	0.042919 
1262.722520  	0.032669 
1264.154178  	0.023500 
1265.585836  	0.015830 
1267.017495  	0.009719 
1268.449153  	0.004758 
1269.880811  	0.000930 
1271.312469  	-0.001862 
1272.744127  	-0.003868 
1274.175785  	-0.004980 
1275.607444  	-0.005433 
1277.039102  	-0.005514 
1278.470760  	-0.004822 
1279.902418  	-0.003474 
1281.334076  	-0.001899 
1282.765735  	0.000085 
1284.197393  	0.002390 
1285.629051  	0.004607 
1287.060709  	0.006598 
1288.492367  	0.008464 
1289.924025  	0.010014 
1291.355684  	0.010593 
1292.787342  	0.009992 
1294.219000  	0.008432 
1295.650658  	0.006031 
1297.082316  	0.002919 
1298.513975  	-0.000593 
1299.945633  	-0.004076 
1301.377291  	-0.006990 
1302.808949  	-0.009173 
1304.240607  	-0.010656 
1305.672266  	-0.010889 
1307.103924  	-0.010053 
1308.535582  	-0.009063 
1309.967240  	-0.008742 
1311.398898  	-0.009953 
1312.830556  	-0.012717 
1314.262215  	-0.016148 
1315.693873  	-0.019524 
1317.125531  	-0.022129 
1318.557189  	-0.023765 
1319.988847  	-0.025013 
1321.420506  	-0.025712 
1322.852164  	-0.026073 
1324.283822  	-0.026418 
1325.715480  	-0.026472 
1327.147138  	-0.026639 
1328.578796  	-0.026921 
1330.010455  	-0.026978 
1331.442113  	-0.027092 
1332.873771  	-0.027155 
1334.305429  	-0.027197 
1335.737087  	-0.027207 
1337.168746  	-0.026878 
1338.600404  	-0.026663 
1340.032062  	-0.026606 
1341.463720  	-0.026545 
1342.895378  	-0.026658 
1344.327037  	-0.026579 
1345.758695  	-0.026531 
1347.190353  	-0.026448 
1348.622011  	-0.025854 
1350.053669  	-0.025594 
1351.485327  	-0.025529 
1352.916986  	-0.025035 
1354.348644  	-0.024484 
1355.780302  	-0.023335 
1357.211960  	-0.021725 
1358.643618  	-0.019057 
1360.075277  	-0.013108 
1361.506935  	-0.004329 
1362.938593  	0.005025 
1364.370251  	0.009032 
1365.801909  	0.005733 
1367.233568  	-0.001433 
1368.665226  	-0.009512 
1370.096884  	-0.015958 
1371.528542  	-0.019481 
1372.960200  	-0.020745 
1374.391858  	-0.021736 
1375.823517  	-0.022257 
1377.255175  	-0.021927 
1378.686833  	-0.021239 
1380.118491  	-0.019847 
1381.550149  	-0.017544 
1382.981808  	-0.013489 
1384.413466  	-0.008769 
1385.845124  	-0.005408 
1387.276782  	-0.004854 
1388.708440  	-0.007663 
1390.140098  	-0.011200 
1391.571757  	-0.014564 
1393.003415  	-0.016732 
1394.435073  	-0.017639 
1395.866731  	-0.017885 
1397.298389  	-0.017042 
1398.730048  	-0.015337 
1400.161706  	-0.013554 
1401.593364  	-0.011074 
1403.025022  	-0.007363 
1404.456680  	-0.002977 
1405.888339  	0.002010 
1407.319997  	0.006492 
1408.751655  	0.008821 
1410.183313  	0.009091 
1411.614971  	0.006465 
1413.046629  	0.001504 
1414.478288  	-0.003797 
1415.909946  	-0.009430 
1417.341604  	-0.013904 
1418.773262  	-0.016934 
1420.204920  	-0.020316 
1421.636579  	-0.021667 
1423.068237  	-0.021977 
1424.499895  	-0.022909 
1425.931553  	-0.023324 
1427.363211  	-0.023364 
1428.794870  	-0.023401 
1430.226528  	-0.022997 
1431.658186  	-0.023127 
1433.089844  	-0.023042 
1434.521502  	-0.022246 
1435.953160  	-0.021689 
1437.384819  	-0.020876 
1438.816477  	-0.019963 
1440.248135  	-0.018726 
1441.679793  	-0.016768 
1443.111451  	-0.015366 
1444.543110  	-0.013952 
1445.974768  	-0.012201 
1447.406426  	-0.010824 
1448.838084  	-0.009067 
1450.269742  	-0.007974 
1451.701400  	-0.007767 
1453.133059  	-0.007441 
1454.564717  	-0.007087 
1455.996375  	-0.005938 
1457.428033  	-0.002588 
1458.859691  	0.000086 
1460.291350  	0.003168 
1461.723008  	0.005920 
1463.154666  	0.007901 
1464.586324  	0.009312 
1466.017982  	0.008156 
1467.449641  	0.006954 
1468.881299  	0.005804 
1470.312957  	0.004405 
1471.744615  	0.004453 
1473.176273  	0.003634 
1474.607931  	0.002399 
1476.039590  	0.002956 
1477.471248  	0.002692 
1478.902906  	0.003334 
1480.334564  	0.005602 
1481.766222  	0.007487 
1483.197881  	0.010584 
1484.629539  	0.015079 
1486.061197  	0.020114 
1487.492855  	0.027794 
1488.924513  	0.036112 
1490.356172  	0.045630 
1491.787830  	0.059253 
1493.219488  	0.070246 
1494.651146  	0.081568 
1496.082804  	0.098039 
1497.514462  	0.113749 
1498.946121  	0.128344 
1500.377779  	0.141219 
1501.809437  	0.145933 
1503.241095  	0.147173 
1504.672753  	0.144600 
1506.104412  	0.133105 
1507.536070  	0.113517 
1508.967728  	0.091669 
1510.399386  	0.070243 
1511.831044  	0.049913 
1513.262702  	0.030765 
1514.694361  	0.016813 
1516.126019  	0.007321 
1517.557677  	-0.002775 
1518.989335  	-0.009015 
1520.420993  	-0.011234 
1521.852652  	-0.015685 
1523.284310  	-0.018915 
1524.715968  	-0.019597 
1526.147626  	-0.021613 
1527.579284  	-0.023126 
1529.010943  	-0.024122 
1530.442601  	-0.025399 
1531.874259  	-0.025182 
1533.305917  	-0.025139 
1534.737575  	-0.026836 
1536.169233  	-0.027168 
1537.600892  	-0.027142 
1539.032550  	-0.026760 
1540.464208  	-0.026483 
1541.895866  	-0.027949 
1543.327524  	-0.028066 
1544.759183  	-0.028334 
1546.190841  	-0.029305 
1547.622499  	-0.028932 
1549.054157  	-0.028465 
1550.485815  	-0.028781 
1551.917473  	-0.028741 
1553.349132  	-0.028549 
1554.780790  	-0.028477 
1556.212448  	-0.028063 
1557.644106  	-0.027134 
1559.075764  	-0.026530 
1560.507423  	-0.029031 
1561.939081  	-0.029015 
1563.370739  	-0.028484 
1564.802397  	-0.028647 
1566.234055  	-0.028769 
1567.665714  	-0.028209 
1569.097372  	-0.027897 
1570.529030  	-0.028364 
1571.960688  	-0.028713 
1573.392346  	-0.028542 
1574.824004  	-0.028048 
1576.255663  	-0.028055 
1577.687321  	-0.028346 
1579.118979  	-0.027974 
1580.550637  	-0.027480 
1581.982295  	-0.026684 
1583.413954  	-0.025383 
1584.845612  	-0.023684 
1586.277270  	-0.021574 
1587.708928  	-0.019023 
1589.140586  	-0.016214 
1590.572245  	-0.013973 
1592.003903  	-0.012394 
1593.435561  	-0.011741 
1594.867219  	-0.012103 
1596.298877  	-0.012378 
1597.730535  	-0.012387 
1599.162194  	-0.012060 
1600.593852  	-0.011331 
1602.025510  	-0.010886 
1603.457168  	-0.011116 
1604.888826  	-0.012412 
1606.320485  	-0.014314 
1607.752143  	-0.016430 
1609.183801  	-0.019039 
1610.615459  	-0.021437 
1612.047117  	-0.023489 
1613.478775  	-0.024780 
1614.910434  	-0.025107 
1616.342092  	-0.025591 
1617.773750  	-0.026785 
1619.205408  	-0.027288 
1620.637066  	-0.027256 
1622.068725  	-0.027105 
1623.500383  	-0.027459 
1624.932041  	-0.027826 
1626.363699  	-0.027520 
1627.795357  	-0.027341 
1629.227016  	-0.027316 
1630.658674  	-0.026716 
1632.090332  	-0.025772 
1633.521990  	-0.024695 
1634.953648  	-0.023376 
1636.385306  	-0.022679 
1637.816965  	-0.023048 
1639.248623  	-0.023355 
1640.680281  	-0.024005 
1642.111939  	-0.024430 
1643.543597  	-0.024180 
1644.975256  	-0.023699 
1646.406914  	-0.023515 
1647.838572  	-0.024514 
1649.270230  	-0.024998 
1650.701888  	-0.024362 
1652.133547  	-0.023218 
1653.565205  	-0.023566 
1654.996863  	-0.025180 
1656.428521  	-0.025087 
1657.860179  	-0.025020 
1659.291837  	-0.025389 
1660.723496  	-0.025391 
1662.155154  	-0.025036 
1663.586812  	-0.025296 
1665.018470  	-0.025578 
1666.450128  	-0.025487 
1667.881787  	-0.025191 
1669.313445  	-0.024828 
1670.745103  	-0.025522 
1672.176761  	-0.026066 
1673.608419  	-0.025556 
1675.040077  	-0.025512 
1676.471736  	-0.026350 
1677.903394  	-0.026165 
1679.335052  	-0.025702 
1680.766710  	-0.025368 
1682.198368  	-0.024748 
1683.630027  	-0.023875 
1685.061685  	-0.024955 
1686.493343  	-0.025528 
1687.925001  	-0.024872 
1689.356659  	-0.024412 
1690.788318  	-0.024341 
1692.219976  	-0.023900 
1693.651634  	-0.023157 
1695.083292  	-0.022174 
1696.514950  	-0.021968 
1697.946608  	-0.021740 
1699.378267  	-0.020018 
1700.809925  	-0.019554 
1702.241583  	-0.020257 
1703.673241  	-0.018725 
1705.104899  	-0.017825 
1706.536558  	-0.017831 
1707.968216  	-0.016697 
1709.399874  	-0.015973 
1710.831532  	-0.015249 
1712.263190  	-0.014151 
1713.694849  	-0.013250 
1715.126507  	-0.011432 
1716.558165  	-0.010002 
1717.989823  	-0.009717 
1719.421481  	-0.008615 
1720.853139  	-0.008022 
1722.284798  	-0.006872 
1723.716456  	-0.004934 
1725.148114  	-0.003881 
1726.579772  	-0.002313 
1728.011430  	-0.000527 
1729.443089  	0.000721 
1730.874747  	0.002731 
1732.306405  	0.004099 
1733.738063  	0.005424 
1735.169721  	0.007562 
1736.601379  	0.008197 
1738.033038  	0.010179 
1739.464696  	0.012654 
1740.896354  	0.014120 
1742.328012  	0.017267 
1743.759670  	0.020229 
1745.191329  	0.023324 
1746.622987  	0.028455 
1748.054645  	0.032850 
1749.486303  	0.038296 
1750.917961  	0.046236 
1752.349620  	0.054214 
1753.781278  	0.064097 
1755.212936  	0.074486 
1756.644594  	0.087026 
1758.076252  	0.104894 
1759.507910  	0.120323 
1760.939569  	0.135565 
1762.371227  	0.156075 
1763.802885  	0.170562 
1765.234543  	0.179039 
1766.666201  	0.186699 
1768.097860  	0.188499 
1769.529518  	0.186823 
1770.961176  	0.184210 
1772.392834  	0.175802 
1773.824492  	0.168106 
1775.256150  	0.160138 
1776.687809  	0.148545 
1778.119467  	0.138857 
1779.551125  	0.128800 
1780.982783  	0.116265 
1782.414441  	0.105823 
1783.846100  	0.094662 
1785.277758  	0.082967 
1786.709416  	0.073164 
1788.141074  	0.061786 
1789.572732  	0.051469 
1791.004391  	0.042758 
1792.436049  	0.030709 
1793.867707  	0.021157 
1795.299365  	0.013821 
1796.731023  	0.005459 
1798.162681  	-0.000046 
1799.594340  	-0.005190 
1801.025998  	-0.010502 
1802.457656  	-0.013362 
1803.889314  	-0.017222 
1805.320972  	-0.019900 
1806.752631  	-0.021220 
1808.184289  	-0.023813 
1809.615947  	-0.024893 
1811.047605  	-0.025832 
1812.479263  	-0.027519 
1813.910922  	-0.027787 
1815.342580  	-0.029029 
1816.774238  	-0.029916 
1818.205896  	-0.029693 
1819.637554  	-0.030671 
1821.069212  	-0.030605 
1822.500871  	-0.030710 
1823.932529  	-0.031709 
1825.364187  	-0.031192 
1826.795845  	-0.031878 
1828.227503  	-0.032534 
1829.659162  	-0.031746 
1831.090820  	-0.032474 
1832.522478  	-0.032526 
1833.954136  	-0.032514 
1835.385794  	-0.033391 
1836.817452  	-0.032733 
1838.249111  	-0.032874 
1839.680769  	-0.033637 
1841.112427  	-0.032947 
1842.544085  	-0.033087 
1843.975743  	-0.033183 
1845.407402  	-0.033081 
1846.839060  	-0.033844 
1848.270718  	-0.033330 
1849.702376  	-0.033374 
1851.134034  	-0.033636 
1852.565693  	-0.032707 
1853.997351  	-0.033229 
1855.429009  	-0.033537 
1856.860667  	-0.032908 
1858.292325  	-0.033401 
1859.723983  	-0.033106 
1861.155642  	-0.033189 
1862.587300  	-0.034201 
1864.018958  	-0.033806 
1865.450616  	-0.033691 
1866.882274  	-0.033191 
1868.313933  	-0.032235 
1869.745591  	-0.033565 
1871.177249  	-0.033321 
1872.608907  	-0.032510 
1874.040565  	-0.033366 
1875.472224  	-0.033181 
1876.903882  	-0.032847 
1878.335540  	-0.032856 
1879.767198  	-0.032325 
1881.198856  	-0.032936 
1882.630514  	-0.032983 
1884.062173  	-0.032339 
1885.493831  	-0.032584 
1886.925489  	-0.031903 
1888.357147  	-0.031424 
1889.788805  	-0.031559 
1891.220464  	-0.030928 
1892.652122  	-0.031170 
1894.083780  	-0.031037 
1895.515438  	-0.030138 
1896.947096  	-0.030087 
1898.378754  	-0.029765 
1899.810413  	-0.030048 
1901.242071  	-0.030472 
1902.673729  	-0.029860 
1904.105387  	-0.030285 
1905.537045  	-0.030577 
1906.968704  	-0.030691 
1908.400362  	-0.031773 
1909.832020  	-0.031371 
1911.263678  	-0.031682 
1912.695336  	-0.033189 
1914.126995  	-0.032817 
1915.558653  	-0.033190 
1916.990311  	-0.033727 
1918.421969  	-0.032787 
1919.853627  	-0.033506 
1921.285285  	-0.033617 
1922.716944  	-0.033359 
1924.148602  	-0.034196 
1925.580260  	-0.032931 
1927.011918  	-0.032451 
1928.443576  	-0.033811 
1929.875235  	-0.033906 
1931.306893  	-0.034225 
1932.738551  	-0.034013 
1934.170209  	-0.033710 
1935.601867  	-0.034954 
1937.033525  	-0.034205 
1938.465184  	-0.033290 
1939.896842  	-0.033866 
1941.328500  	-0.033182 
1942.760158  	-0.033391 
1944.191816  	-0.033783 
1945.623475  	-0.033269 
1947.055133  	-0.033550 
1948.486791  	-0.032156 
1949.918449  	-0.031444 
1951.350107  	-0.032532 
1952.781766  	-0.032010 
1954.213424  	-0.032310 
1955.645082  	-0.032782 
1957.076740  	-0.033098 
1958.508398  	-0.035461 
1959.940056  	-0.033490 
1961.371715  	-0.029868 
1962.803373  	-0.030933 
1964.235031  	-0.030706 
1965.666689  	-0.030111 
1967.098347  	-0.031027 
1968.530006  	-0.030724 
1969.961664  	-0.031368 
1971.393322  	-0.030450 
1972.824980  	-0.029296 
1974.256638  	-0.030960 
1975.688297  	-0.029763 
1977.119955  	-0.028272 
1978.551613  	-0.029986 
1979.983271  	-0.032196 
1981.414929  	-0.034137 
1982.846587  	-0.032444 
1984.278246  	-0.030272 
1985.709904  	-0.031206 
1987.141562  	-0.031083 
1988.573220  	-0.032106 
1990.004878  	-0.032728 
1991.436537  	-0.030030 
1992.868195  	-0.031241 
1994.299853  	-0.033109 
1995.731511  	-0.031754 
1997.163169  	-0.032067 
1998.594827  	-0.031841 
2000.026486  	-0.031753 
2001.458144  	-0.032509 
2002.889802  	-0.030440 
2004.321460  	-0.030944 
2005.753118  	-0.033586 
2007.184777  	-0.033075 
2008.616435  	-0.032800 
2010.048093  	-0.031911 
2011.479751  	-0.031967 
2012.911409  	-0.033112 
2014.343068  	-0.030385 
2015.774726  	-0.030127 
2017.206384  	-0.031365 
2018.638042  	-0.027958 
2020.069700  	-0.027527 
2021.501358  	-0.029342 
2022.933017  	-0.030096 
2024.364675  	-0.031532 
2025.796333  	-0.030263 
2027.227991  	-0.030190 
2028.659649  	-0.031771 
2030.091308  	-0.029424 
2031.522966  	-0.029005 
2032.954624  	-0.030328 
2034.386282  	-0.029872 
2035.817940  	-0.030696 
2037.249599  	-0.030084 
2038.681257  	-0.028850 
2040.112915  	-0.028937 
2041.544573  	-0.028795 
2042.976231  	-0.030423 
2044.407889  	-0.031358 
2045.839548  	-0.030737 
2047.271206  	-0.031759 
2048.702864  	-0.031758 
2050.134522  	-0.031933 
2051.566180  	-0.032822 
2052.997839  	-0.031094 
2054.429497  	-0.030280 
2055.861155  	-0.031505 
2057.292813  	-0.032629 
2058.724471  	-0.034204 
2060.156129  	-0.033728 
2061.587788  	-0.032322 
2063.019446  	-0.033299 
2064.451104  	-0.034499 
2065.882762  	-0.035253 
2067.314420  	-0.035022 
2068.746079  	-0.034113 
2070.177737  	-0.035207 
2071.609395  	-0.035502 
2073.041053  	-0.034343 
2074.472711  	-0.034284 
2075.904370  	-0.033784 
2077.336028  	-0.034033 
2078.767686  	-0.035489 
2080.199344  	-0.035769 
2081.631002  	-0.035940 
2083.062660  	-0.035644 
2084.494319  	-0.034995 
2085.925977  	-0.035224 
2087.357635  	-0.034458 
2088.789293  	-0.034057 
2090.220951  	-0.034749 
2091.652610  	-0.034386 
2093.084268  	-0.034606 
2094.515926  	-0.034802 
2095.947584  	-0.034525 
2097.379242  	-0.036237 
2098.810901  	-0.036483 
2100.242559  	-0.034479 
2101.674217  	-0.034138 
2103.105875  	-0.034827 
2104.537533  	-0.036196 
2105.969191  	-0.037347 
2107.400850  	-0.036487 
2108.832508  	-0.035705 
2110.264166  	-0.035480 
2111.695824  	-0.035450 
2113.127482  	-0.035423 
2114.559141  	-0.034335 
2115.990799  	-0.034512 
2117.422457  	-0.035406 
2118.854115  	-0.034472 
2120.285773  	-0.034434 
2121.717431  	-0.035275 
2123.149090  	-0.035385 
2124.580748  	-0.036061 
2126.012406  	-0.035846 
2127.444064  	-0.034969 
2128.875722  	-0.034969 
2130.307381  	-0.034684 
2131.739039  	-0.034952 
2133.170697  	-0.035227 
2134.602355  	-0.034731 
2136.034013  	-0.034890 
2137.465672  	-0.033739 
2138.897330  	-0.033054 
2140.328988  	-0.034316 
2141.760646  	-0.033844 
2143.192304  	-0.033961 
2144.623962  	-0.034234 
2146.055621  	-0.032225 
2147.487279  	-0.032980 
2148.918937  	-0.033214 
2150.350595  	-0.030175 
2151.782253  	-0.029925 
2153.213912  	-0.030525 
2154.645570  	-0.030955 
2156.077228  	-0.032608 
2157.508886  	-0.031670 
2158.940544  	-0.030095 
2160.372202  	-0.028516 
2161.803861  	-0.028487 
2163.235519  	-0.032485 
2164.667177  	-0.033351 
2166.098835  	-0.031357 
2167.530493  	-0.031688 
2168.962152  	-0.032536 
2170.393810  	-0.033851 
2171.825468  	-0.033273 
2173.257126  	-0.030983 
2174.688784  	-0.031319 
2176.120443  	-0.030321 
2177.552101  	-0.028810 
2178.983759  	-0.030814 
2180.415417  	-0.031467 
2181.847075  	-0.031847 
2183.278733  	-0.033584 
2184.710392  	-0.032429 
2186.142050  	-0.031552 
2187.573708  	-0.032115 
2189.005366  	-0.031540 
2190.437024  	-0.031502 
2191.868683  	-0.031734 
2193.300341  	-0.031790 
2194.731999  	-0.032365 
2196.163657  	-0.032464 
2197.595315  	-0.032547 
2199.026974  	-0.032431 
2200.458632  	-0.031665 
2201.890290  	-0.031499 
2203.321948  	-0.032132 
2204.753606  	-0.032963 
2206.185264  	-0.032728 
2207.616923  	-0.032142 
2209.048581  	-0.033424 
2210.480239  	-0.034677 
2211.911897  	-0.034566 
2213.343555  	-0.033957 
2214.775214  	-0.032699 
2216.206872  	-0.032615 
2217.638530  	-0.033220 
2219.070188  	-0.032657 
2220.501846  	-0.032310 
2221.933504  	-0.031827 
2223.365163  	-0.031666 
2224.796821  	-0.032686 
2226.228479  	-0.032120 
2227.660137  	-0.031288 
2229.091795  	-0.032331 
2230.523454  	-0.032758 
2231.955112  	-0.032206 
2233.386770  	-0.031455 
2234.818428  	-0.031408 
2236.250086  	-0.032701 
2237.681745  	-0.032966 
2239.113403  	-0.032308 
2240.545061  	-0.032362 
2241.976719  	-0.032452 
2243.408377  	-0.032940 
2244.840035  	-0.033274 
2246.271694  	-0.033417 
2247.703352  	-0.034360 
2249.135010  	-0.034005 
2250.566668  	-0.033024 
2251.998326  	-0.033434 
2253.429985  	-0.033387 
2254.861643  	-0.033394 
2256.293301  	-0.034180 
2257.724959  	-0.034459 
2259.156617  	-0.034868 
2260.588276  	-0.034977 
2262.019934  	-0.034756 
2263.451592  	-0.034980 
2264.883250  	-0.034642 
2266.314908  	-0.035053 
2267.746566  	-0.036305 
2269.178225  	-0.036086 
2270.609883  	-0.035649 
2272.041541  	-0.035548 
2273.473199  	-0.035461 
2274.904857  	-0.036504 
2276.336516  	-0.037267 
2277.768174  	-0.037308 
2279.199832  	-0.037688 
2280.631490  	-0.037590 
2282.063148  	-0.037300 
2283.494806  	-0.037153 
2284.926465  	-0.037036 
2286.358123  	-0.037272 
2287.789781  	-0.036801 
2289.221439  	-0.036294 
2290.653097  	-0.036689 
2292.084756  	-0.036456 
2293.516414  	-0.036215 
2294.948072  	-0.036542 
2296.379730  	-0.036070 
2297.811388  	-0.035625 
2299.243047  	-0.035583 
2300.674705  	-0.035067 
2302.106363  	-0.034477 
2303.538021  	-0.033936 
2304.969679  	-0.033529 
2306.401337  	-0.033026 
2307.832996  	-0.032041 
2309.264654  	-0.031556 
2310.696312  	-0.031200 
2312.127970  	-0.030267 
2313.559628  	-0.029899 
2314.991287  	-0.029821 
2316.422945  	-0.029208 
2317.854603  	-0.028073 
2319.286261  	-0.026385 
2320.717919  	-0.025237 
2322.149577  	-0.024810 
2323.581236  	-0.024409 
2325.012894  	-0.024368 
2326.444552  	-0.023845 
2327.876210  	-0.022365 
2329.307868  	-0.021151 
2330.739527  	-0.020681 
2332.171185  	-0.020829 
2333.602843  	-0.021164 
2335.034501  	-0.021109 
2336.466159  	-0.020898 
2337.897818  	-0.020578 
2339.329476  	-0.020274 
2340.761134  	-0.019966 
2342.192792  	-0.019512 
2343.624450  	-0.019722 
2345.056108  	-0.020370 
2346.487767  	-0.022213 
2347.919425  	-0.025772 
2349.351083  	-0.027136 
2350.782741  	-0.024612 
2352.214399  	-0.021262 
2353.646058  	-0.019226 
2355.077716  	-0.017041 
2356.509374  	-0.015148 
2357.941032  	-0.014096 
2359.372690  	-0.013424 
2360.804349  	-0.013368 
2362.236007  	-0.013613 
2363.667665  	-0.014486 
2365.099323  	-0.015856 
2366.530981  	-0.017017 
2367.962639  	-0.018392 
2369.394298  	-0.019823 
2370.825956  	-0.021298 
2372.257614  	-0.022978 
2373.689272  	-0.024502 
2375.120930  	-0.026247 
2376.552589  	-0.027847 
2377.984247  	-0.029114 
2379.415905  	-0.031060 
2380.847563  	-0.033149 
2382.279221  	-0.034541 
2383.710879  	-0.035625 
2385.142538  	-0.036502 
2386.574196  	-0.037105 
2388.005854  	-0.037158 
2389.437512  	-0.036725 
2390.869170  	-0.036780 
2392.300829  	-0.037144 
2393.732487  	-0.037064 
2395.164145  	-0.037003 
2396.595803  	-0.037171 
2398.027461  	-0.037167 
2399.459120  	-0.037185 
2400.890778  	-0.037479 
2402.322436  	-0.037492 
2403.754094  	-0.036953 
2405.185752  	-0.036695 
2406.617410  	-0.036868 
2408.049069  	-0.036954 
2409.480727  	-0.036984 
2410.912385  	-0.036739 
2412.344043  	-0.036578 
2413.775701  	-0.036957 
2415.207360  	-0.036929 
2416.639018  	-0.036762 
2418.070676  	-0.037297 
2419.502334  	-0.037494 
2420.933992  	-0.037167 
2422.365651  	-0.037131 
2423.797309  	-0.037269 
2425.228967  	-0.037399 
2426.660625  	-0.037548 
2428.092283  	-0.037945 
2429.523941  	-0.038173 
2430.955600  	-0.037528 
2432.387258  	-0.037166 
2433.818916  	-0.037561 
2435.250574  	-0.037553 
2436.682232  	-0.037457 
2438.113891  	-0.037764 
2439.545549  	-0.038071 
2440.977207  	-0.038069 
2442.408865  	-0.037566 
2443.840523  	-0.037448 
2445.272181  	-0.037886 
2446.703840  	-0.037767 
2448.135498  	-0.037635 
2449.567156  	-0.037976 
2450.998814  	-0.038171 
2452.430472  	-0.038289 
2453.862131  	-0.038159 
2455.293789  	-0.037950 
2456.725447  	-0.038110 
2458.157105  	-0.038024 
2459.588763  	-0.037812 
2461.020422  	-0.037966 
2462.452080  	-0.038169 
2463.883738  	-0.038383 
2465.315396  	-0.038315 
2466.747054  	-0.037940 
2468.178712  	-0.037856 
2469.610371  	-0.037852 
2471.042029  	-0.037865 
2472.473687  	-0.038068 
2473.905345  	-0.038053 
2475.337003  	-0.037830 
2476.768662  	-0.037670 
2478.200320  	-0.037759 
2479.631978  	-0.038120 
2481.063636  	-0.038442 
2482.495294  	-0.038572 
2483.926953  	-0.038216 
2485.358611  	-0.037764 
2486.790269  	-0.038094 
2488.221927  	-0.038468 
2489.653585  	-0.038605 
2491.085243  	-0.039077 
2492.516902  	-0.038959 
2493.948560  	-0.038382 
2495.380218  	-0.038430 
2496.811876  	-0.038624 
2498.243534  	-0.038814 
2499.675193  	-0.039088 
2501.106851  	-0.039099 
2502.538509  	-0.039193 
2503.970167  	-0.039337 
2505.401825  	-0.039158 
2506.833483  	-0.038824 
2508.265142  	-0.038747 
2509.696800  	-0.039148 
2511.128458  	-0.039240 
2512.560116  	-0.038920 
2513.991774  	-0.039173 
2515.423433  	-0.039488 
2516.855091  	-0.039273 
2518.286749  	-0.039034 
2519.718407  	-0.039111 
2521.150065  	-0.039734 
2522.581724  	-0.040088 
2524.013382  	-0.039652 
2525.445040  	-0.039507 
2526.876698  	-0.039718 
2528.308356  	-0.040033 
2529.740014  	-0.040286 
2531.171673  	-0.039757 
2532.603331  	-0.039618 
2534.034989  	-0.040239 
2535.466647  	-0.040104 
2536.898305  	-0.040036 
2538.329964  	-0.040452 
2539.761622  	-0.040255 
2541.193280  	-0.040147 
2542.624938  	-0.040276 
2544.056596  	-0.039975 
2545.488254  	-0.039732 
2546.919913  	-0.039988 
2548.351571  	-0.040673 
2549.783229  	-0.040822 
2551.214887  	-0.040257 
2552.646545  	-0.040493 
2554.078204  	-0.041073 
2555.509862  	-0.040852 
2556.941520  	-0.040573 
2558.373178  	-0.040490 
2559.804836  	-0.040468 
2561.236495  	-0.040544 
2562.668153  	-0.040544 
2564.099811  	-0.040731 
2565.531469  	-0.040738 
2566.963127  	-0.040369 
2568.394785  	-0.040308 
2569.826444  	-0.040406 
2571.258102  	-0.040700 
2572.689760  	-0.041090 
2574.121418  	-0.040699 
2575.553076  	-0.040277 
2576.984735  	-0.040515 
2578.416393  	-0.040709 
2579.848051  	-0.040882 
2581.279709  	-0.040895 
2582.711367  	-0.040551 
2584.143026  	-0.040617 
2585.574684  	-0.040933 
2587.006342  	-0.040767 
2588.438000  	-0.040357 
2589.869658  	-0.040206 
2591.301316  	-0.040264 
2592.732975  	-0.040188 
2594.164633  	-0.040177 
2595.596291  	-0.040465 
2597.027949  	-0.040734 
2598.459607  	-0.041013 
2599.891266  	-0.041294 
2601.322924  	-0.041224 
2602.754582  	-0.041005 
2604.186240  	-0.040942 
2605.617898  	-0.040969 
2607.049556  	-0.040963 
2608.481215  	-0.040907 
2609.912873  	-0.040856 
2611.344531  	-0.040829 
2612.776189  	-0.041033 
2614.207847  	-0.041294 
2615.639506  	-0.041190 
2617.071164  	-0.041167 
2618.502822  	-0.041275 
2619.934480  	-0.041115 
2621.366138  	-0.041197 
2622.797797  	-0.041417 
2624.229455  	-0.041440 
2625.661113  	-0.041709 
2627.092771  	-0.041953 
2628.524429  	-0.042042 
2629.956087  	-0.042117 
2631.387746  	-0.041764 
2632.819404  	-0.041593 
2634.251062  	-0.041922 
2635.682720  	-0.041963 
2637.114378  	-0.041870 
2638.546037  	-0.041796 
2639.977695  	-0.041746 
2641.409353  	-0.042105 
2642.841011  	-0.042273 
2644.272669  	-0.042024 
2645.704328  	-0.041951 
2647.135986  	-0.041940 
2648.567644  	-0.041996 
2649.999302  	-0.042075 
2651.430960  	-0.041894 
2652.862618  	-0.041822 
2654.294277  	-0.041911 
2655.725935  	-0.041940 
2657.157593  	-0.041943 
2658.589251  	-0.041793 
2660.020909  	-0.041692 
2661.452568  	-0.041668 
2662.884226  	-0.041527 
2664.315884  	-0.041581 
2665.747542  	-0.041627 
2667.179200  	-0.041460 
2668.610858  	-0.041483 
2670.042517  	-0.041554 
2671.474175  	-0.041578 
2672.905833  	-0.041591 
2674.337491  	-0.041416 
2675.769149  	-0.041520 
2677.200808  	-0.041868 
2678.632466  	-0.041885 
2680.064124  	-0.041788 
2681.495782  	-0.041605 
2682.927440  	-0.041364 
2684.359099  	-0.041440 
2685.790757  	-0.041573 
2687.222415  	-0.041598 
2688.654073  	-0.041604 
2690.085731  	-0.041532 
2691.517389  	-0.041536 
2692.949048  	-0.041508 
2694.380706  	-0.041503 
2695.812364  	-0.041725 
2697.244022  	-0.041724 
2698.675680  	-0.041545 
2700.107339  	-0.041565 
2701.538997  	-0.041543 
2702.970655  	-0.041481 
2704.402313  	-0.041418 
2705.833971  	-0.041289 
2707.265630  	-0.041249 
2708.697288  	-0.041204 
2710.128946  	-0.041159 
2711.560604  	-0.041087 
2712.992262  	-0.040906 
2714.423920  	-0.041009 
2715.855579  	-0.041175 
2717.287237  	-0.041091 
2718.718895  	-0.041225 
2720.150553  	-0.041345 
2721.582211  	-0.041200 
2723.013870  	-0.041197 
2724.445528  	-0.041203 
2725.877186  	-0.041165 
2727.308844  	-0.041155 
2728.740502  	-0.041061 
2730.172160  	-0.041141 
2731.603819  	-0.041298 
2733.035477  	-0.041344 
2734.467135  	-0.041402 
2735.898793  	-0.041258 
2737.330451  	-0.041217 
2738.762110  	-0.041531 
2740.193768  	-0.041563 
2741.625426  	-0.041358 
2743.057084  	-0.041364 
2744.488742  	-0.041527 
2745.920401  	-0.041706 
2747.352059  	-0.041630 
2748.783717  	-0.041494 
2750.215375  	-0.041564 
2751.647033  	-0.041487 
2753.078691  	-0.041397 
2754.510350  	-0.041439 
2755.942008  	-0.041373 
2757.373666  	-0.041437 
2758.805324  	-0.041496 
2760.236982  	-0.041310 
2761.668641  	-0.041224 
2763.100299  	-0.041144 
2764.531957  	-0.040987 
2765.963615  	-0.040990 
2767.395273  	-0.040956 
2768.826931  	-0.040785 
2770.258590  	-0.040559 
2771.690248  	-0.040339 
2773.121906  	-0.040335 
2774.553564  	-0.040451 
2775.985222  	-0.040412 
2777.416881  	-0.040170 
2778.848539  	-0.039954 
2780.280197  	-0.040120 
2781.711855  	-0.040467 
2783.143513  	-0.040571 
2784.575172  	-0.040606 
2786.006830  	-0.040758 
2787.438488  	-0.040792 
2788.870146  	-0.040659 
2790.301804  	-0.040738 
2791.733462  	-0.040936 
2793.165121  	-0.040716 
2794.596779  	-0.040523 
2796.028437  	-0.040771 
2797.460095  	-0.040823 
2798.891753  	-0.040757 
2800.323412  	-0.040916 
2801.755070  	-0.040916 
2803.186728  	-0.040814 
2804.618386  	-0.040682 
2806.050044  	-0.040463 
2807.481703  	-0.040445 
2808.913361  	-0.040430 
2810.345019  	-0.040400 
2811.776677  	-0.040551 
2813.208335  	-0.040556 
2814.639993  	-0.040626 
2816.071652  	-0.040811 
2817.503310  	-0.040565 
2818.934968  	-0.040280 
2820.366626  	-0.040282 
2821.798284  	-0.040248 
2823.229943  	-0.040236 
2824.661601  	-0.040345 
2826.093259  	-0.040608 
2827.524917  	-0.040718 
2828.956575  	-0.040323 
2830.388233  	-0.040135 
2831.819892  	-0.040423 
2833.251550  	-0.040499 
2834.683208  	-0.040357 
2836.114866  	-0.040126 
2837.546524  	-0.039764 
2838.978183  	-0.039488 
2840.409841  	-0.039248 
2841.841499  	-0.038958 
2843.273157  	-0.038521 
2844.704815  	-0.037733 
2846.136474  	-0.036632 
2847.568132  	-0.035243 
2848.999790  	-0.034086 
2850.431448  	-0.033860 
2851.863106  	-0.034185 
2853.294764  	-0.034637 
2854.726423  	-0.035252 
2856.158081  	-0.035642 
2857.589739  	-0.035675 
2859.021397  	-0.035571 
2860.453055  	-0.035215 
2861.884714  	-0.034499 
2863.316372  	-0.033520 
2864.748030  	-0.032507 
2866.179688  	-0.031541 
2867.611346  	-0.030419 
2869.043005  	-0.029192 
2870.474663  	-0.028238 
2871.906321  	-0.027786 
2873.337979  	-0.027644 
2874.769637  	-0.027606 
2876.201295  	-0.027925 
2877.632954  	-0.028642 
2879.064612  	-0.029389 
2880.496270  	-0.030126 
2881.927928  	-0.030797 
2883.359586  	-0.031166 
2884.791245  	-0.031329 
2886.222903  	-0.031456 
2887.654561  	-0.031560 
2889.086219  	-0.031461 
2890.517877  	-0.031158 
2891.949535  	-0.031115 
2893.381194  	-0.031304 
2894.812852  	-0.031385 
2896.244510  	-0.031556 
2897.676168  	-0.031769 
2899.107826  	-0.031802 
2900.539485  	-0.031815 
2901.971143  	-0.031738 
2903.402801  	-0.031416 
2904.834459  	-0.030934 
2906.266117  	-0.030334 
2907.697776  	-0.029676 
2909.129434  	-0.028960 
2910.561092  	-0.028130 
2911.992750  	-0.027218 
2913.424408  	-0.026193 
2914.856066  	-0.024964 
2916.287725  	-0.023734 
2917.719383  	-0.023139 
2919.151041  	-0.023341 
2920.582699  	-0.023766 
2922.014357  	-0.024186 
2923.446016  	-0.024517 
2924.877674  	-0.024513 
2926.309332  	-0.024355 
2927.740990  	-0.024078 
2929.172648  	-0.023599 
2930.604306  	-0.023206 
2932.035965  	-0.022913 
2933.467623  	-0.022823 
2934.899281  	-0.023017 
2936.330939  	-0.023049 
2937.762597  	-0.023158 
2939.194256  	-0.023735 
2940.625914  	-0.024247 
2942.057572  	-0.024521 
2943.489230  	-0.024801 
2944.920888  	-0.025052 
2946.352547  	-0.025240 
2947.784205  	-0.025195 
2949.215863  	-0.024926 
2950.647521  	-0.024506 
2952.079179  	-0.023643 
2953.510837  	-0.022436 
2954.942496  	-0.021131 
2956.374154  	-0.019453 
2957.805812  	-0.017136 
2959.237470  	-0.014402 
2960.669128  	-0.011821 
2962.100787  	-0.009374 
2963.532445  	-0.006787 
2964.964103  	-0.004702 
2966.395761  	-0.003531 
2967.827419  	-0.002985 
2969.259078  	-0.003009 
2970.690736  	-0.003472 
2972.122394  	-0.004409 
2973.554052  	-0.006106 
2974.985710  	-0.008194 
2976.417368  	-0.010265 
2977.849027  	-0.012350 
2979.280685  	-0.014484 
2980.712343  	-0.016885 
2982.144001  	-0.019354 
2983.575659  	-0.021416 
2985.007318  	-0.023282 
2986.438976  	-0.025155 
2987.870634  	-0.026899 
2989.302292  	-0.028438 
2990.733950  	-0.029904 
2992.165608  	-0.031497 
2993.597267  	-0.032710 
2995.028925  	-0.033484 
2996.460583  	-0.034654 
2997.892241  	-0.035748 
2999.323899  	-0.036305 
3000.755558  	-0.036986 
3002.187216  	-0.037555 
3003.618874  	-0.037964 
3005.050532  	-0.038666 
3006.482190  	-0.039130 
3007.913849  	-0.039420 
3009.345507  	-0.039956 
3010.777165  	-0.040293 
3012.208823  	-0.040501 
3013.640481  	-0.040849 
3015.072139  	-0.041124 
3016.503798  	-0.041316 
3017.935456  	-0.041421 
3019.367114  	-0.041451 
3020.798772  	-0.041444 
3022.230430  	-0.041341 
3023.662089  	-0.041258 
3025.093747  	-0.041227 
3026.525405  	-0.041197 
3027.957063  	-0.040970 
3029.388721  	-0.040308 
3030.820380  	-0.039561 
3032.252038  	-0.038906 
3033.683696  	-0.038140 
3035.115354  	-0.037457 
3036.547012  	-0.036937 
3037.978670  	-0.036580 
3039.410329  	-0.036319 
3040.841987  	-0.035820 
3042.273645  	-0.035581 
3043.705303  	-0.036014 
3045.136961  	-0.036328 
3046.568620  	-0.036368 
3048.000278  	-0.036672 
3049.431936  	-0.037070 
3050.863594  	-0.037196 
3052.295252  	-0.037024 
3053.726910  	-0.036780 
3055.158569  	-0.036576 
3056.590227  	-0.036381 
3058.021885  	-0.036454 
3059.453543  	-0.036661 
3060.885201  	-0.036626 
3062.316860  	-0.036597 
3063.748518  	-0.036706 
3065.180176  	-0.036887 
3066.611834  	-0.037272 
3068.043492  	-0.037655 
3069.475151  	-0.037943 
3070.906809  	-0.038319 
3072.338467  	-0.038599 
3073.770125  	-0.038746 
3075.201783  	-0.039019 
3076.633441  	-0.039297 
3078.065100  	-0.039419 
3079.496758  	-0.039660 
3080.928416  	-0.039975 
3082.360074  	-0.040043 
3083.791732  	-0.040310 
3085.223391  	-0.040821 
3086.655049  	-0.040822 
3088.086707  	-0.040727 
3089.518365  	-0.040988 
3090.950023  	-0.041057 
3092.381682  	-0.041260 
3093.813340  	-0.041735 
3095.244998  	-0.041816 
3096.676656  	-0.041915 
3098.108314  	-0.042261 
3099.539972  	-0.042236 
3100.971631  	-0.041985 
3102.403289  	-0.041885 
3103.834947  	-0.042006 
3105.266605  	-0.042321 
3106.698263  	-0.042509 
3108.129922  	-0.042393 
3109.561580  	-0.042183 
3110.993238  	-0.042201 
3112.424896  	-0.042425 
3113.856554  	-0.042449 
3115.288212  	-0.042342 
3116.719871  	-0.042414 
3118.151529  	-0.042761 
3119.583187  	-0.043291 
3121.014845  	-0.043422 
3122.446503  	-0.043154 
3123.878162  	-0.043106 
3125.309820  	-0.043152 
3126.741478  	-0.043277 
3128.173136  	-0.043467 
3129.604794  	-0.043303 
3131.036453  	-0.043334 
3132.468111  	-0.043809 
3133.899769  	-0.044066 
3135.331427  	-0.044139 
3136.763085  	-0.044099 
3138.194743  	-0.043958 
3139.626402  	-0.044067 
3141.058060  	-0.044204 
3142.489718  	-0.044199 
3143.921376  	-0.044165 
3145.353034  	-0.044246 
3146.784693  	-0.044670 
3148.216351  	-0.044850 
3149.648009  	-0.044625 
3151.079667  	-0.044690 
3152.511325  	-0.044667 
3153.942983  	-0.044415 
3155.374642  	-0.044458 
3156.806300  	-0.044473 
3158.237958  	-0.044482 
3159.669616  	-0.044708 
3161.101274  	-0.044885 
3162.532933  	-0.045048 
3163.964591  	-0.045031 
3165.396249  	-0.044930 
3166.827907  	-0.045023 
3168.259565  	-0.044870 
3169.691224  	-0.044720 
3171.122882  	-0.044821 
3172.554540  	-0.044642 
3173.986198  	-0.044709 
3175.417856  	-0.045159 
3176.849514  	-0.045135 
3178.281173  	-0.044947 
3179.712831  	-0.044993 
3181.144489  	-0.044985 
3182.576147  	-0.044897 
3184.007805  	-0.044729 
3185.439464  	-0.044610 
3186.871122  	-0.044543 
3188.302780  	-0.044445 
3189.734438  	-0.044552 
3191.166096  	-0.044592 
3192.597755  	-0.044452 
3194.029413  	-0.044585 
3195.461071  	-0.044834 
3196.892729  	-0.045114 
3198.324387  	-0.045378 
3199.756045  	-0.045095 
3201.187704  	-0.044650 
3202.619362  	-0.044622 
3204.051020  	-0.044726 
3205.482678  	-0.044804 
3206.914336  	-0.044764 
3208.345995  	-0.044647 
3209.777653  	-0.044833 
3211.209311  	-0.045110 
3212.640969  	-0.045198 
3214.072627  	-0.045385 
3215.504285  	-0.045601 
3216.935944  	-0.045531 
3218.367602  	-0.045281 
3219.799260  	-0.045061 
3221.230918  	-0.045073 
3222.662576  	-0.045439 
3224.094235  	-0.045668 
3225.525893  	-0.045405 
3226.957551  	-0.045284 
3228.389209  	-0.045524 
3229.820867  	-0.045545 
3231.252526  	-0.045379 
3232.684184  	-0.045289 
3234.115842  	-0.045317 
3235.547500  	-0.045534 
3236.979158  	-0.045663 
3238.410816  	-0.045629 
3239.842475  	-0.045576 
3241.274133  	-0.045453 
3242.705791  	-0.045569 
3244.137449  	-0.045725 
3245.569107  	-0.045402 
3247.000766  	-0.045170 
3248.432424  	-0.045232 
3249.864082  	-0.045265 
3251.295740  	-0.045586 
3252.727398  	-0.045930 
3254.159057  	-0.045872 
3255.590715  	-0.045745 
3257.022373  	-0.045569 
3258.454031  	-0.045331 
3259.885689  	-0.045285 
3261.317347  	-0.045398 
3262.749006  	-0.045479 
3264.180664  	-0.045284 
3265.612322  	-0.045071 
3267.043980  	-0.045295 
3268.475638  	-0.045528 
3269.907297  	-0.045369 
3271.338955  	-0.045066 
3272.770613  	-0.044955 
3274.202271  	-0.045180 
3275.633929  	-0.045297 
3277.065587  	-0.045056 
3278.497246  	-0.044957 
3279.928904  	-0.045088 
3281.360562  	-0.045120 
3282.792220  	-0.044912 
3284.223878  	-0.044576 
3285.655537  	-0.044427 
3287.087195  	-0.044359 
3288.518853  	-0.044258 
3289.950511  	-0.044315 
3291.382169  	-0.044216 
3292.813828  	-0.043918 
3294.245486  	-0.043854 
3295.677144  	-0.043795 
3297.108802  	-0.043697 
3298.540460  	-0.043925 
3299.972118  	-0.044185 
3301.403777  	-0.044128 
3302.835435  	-0.043965 
3304.267093  	-0.043939 
3305.698751  	-0.044092 
3307.130409  	-0.044451 
3308.562068  	-0.044908 
3309.993726  	-0.045102 
3311.425384  	-0.045070 
3312.857042  	-0.045140 
3314.288700  	-0.045197 
3315.720359  	-0.045255 
3317.152017  	-0.045478 
3318.583675  	-0.045639 
3320.015333  	-0.045578 
3321.446991  	-0.045384 
3322.878649  	-0.045420 
3324.310308  	-0.045930 
3325.741966  	-0.046401 
3327.173624  	-0.046485 
3328.605282  	-0.046470 
3330.036940  	-0.046506 
3331.468599  	-0.046509 
3332.900257  	-0.046253 
3334.331915  	-0.045935 
3335.763573  	-0.045941 
3337.195231  	-0.045949 
3338.626889  	-0.045981 
3340.058548  	-0.046301 
3341.490206  	-0.046401 
3342.921864  	-0.046235 
3344.353522  	-0.046208 
3345.785180  	-0.046385 
3347.216839  	-0.046720 
3348.648497  	-0.046661 
3350.080155  	-0.046167 
3351.511813  	-0.046118 
3352.943471  	-0.046518 
3354.375130  	-0.046829 
3355.806788  	-0.046768 
3357.238446  	-0.046361 
3358.670104  	-0.046290 
3360.101762  	-0.046637 
3361.533420  	-0.046838 
3362.965079  	-0.046757 
3364.396737  	-0.046489 
3365.828395  	-0.046590 
3367.260053  	-0.046944 
3368.691711  	-0.046621 
3370.123370  	-0.046373 
3371.555028  	-0.046862 
3372.986686  	-0.047117 
3374.418344  	-0.047010 
3375.850002  	-0.046850 
3377.281660  	-0.046698 
3378.713319  	-0.046905 
3380.144977  	-0.047077 
3381.576635  	-0.046930 
3383.008293  	-0.046935 
3384.439951  	-0.047175 
3385.871610  	-0.047475 
3387.303268  	-0.047442 
3388.734926  	-0.047138 
3390.166584  	-0.047095 
3391.598242  	-0.046832 
3393.029901  	-0.046355 
3394.461559  	-0.046463 
3395.893217  	-0.046626 
3397.324875  	-0.046612 
3398.756533  	-0.046800 
3400.188191  	-0.046749 
3401.619850  	-0.046643 
3403.051508  	-0.046830 
3404.483166  	-0.046798 
3405.914824  	-0.046649 
3407.346482  	-0.046748 
3408.778141  	-0.046793 
3410.209799  	-0.046727 
3411.641457  	-0.046897 
3413.073115  	-0.047093 
3414.504773  	-0.046936 
3415.936432  	-0.046951 
3417.368090  	-0.047205 
3418.799748  	-0.046901 
3420.231406  	-0.046550 
3421.663064  	-0.046750 
3423.094722  	-0.046703 
3424.526381  	-0.046543 
3425.958039  	-0.046866 
3427.389697  	-0.047144 
3428.821355  	-0.047014 
3430.253013  	-0.046814 
3431.684672  	-0.046806 
3433.116330  	-0.046808 
3434.547988  	-0.046664 
3435.979646  	-0.046573 
3437.411304  	-0.046458 
3438.842962  	-0.046366 
3440.274621  	-0.046501 
3441.706279  	-0.046606 
3443.137937  	-0.046806 
3444.569595  	-0.046998 
3446.001253  	-0.046812 
3447.432912  	-0.046982 
3448.864570  	-0.047289 
3450.296228  	-0.046923 
3451.727886  	-0.046839 
3453.159544  	-0.046992 
3454.591203  	-0.046624 
3456.022861  	-0.046638 
3457.454519  	-0.046889 
3458.886177  	-0.046493 
3460.317835  	-0.046343 
3461.749493  	-0.046764 
3463.181152  	-0.046828 
3464.612810  	-0.046625 
3466.044468  	-0.046695 
3467.476126  	-0.046801 
3468.907784  	-0.046879 
3470.339443  	-0.047150 
3471.771101  	-0.047031 
3473.202759  	-0.046414 
3474.634417  	-0.046310 
3476.066075  	-0.046677 
3477.497734  	-0.046918 
3478.929392  	-0.047028 
3480.361050  	-0.046659 
3481.792708  	-0.046134 
3483.224366  	-0.046230 
3484.656024  	-0.046451 
3486.087683  	-0.046497 
3487.519341  	-0.046619 
3488.950999  	-0.046734 
3490.382657  	-0.046850 
3491.814315  	-0.046880 
3493.245974  	-0.046891 
3494.677632  	-0.046996 
3496.109290  	-0.046915 
3497.540948  	-0.046828 
3498.972606  	-0.046777 
3500.404264  	-0.046450 
3501.835923  	-0.046268 
3503.267581  	-0.046300 
3504.699239  	-0.046129 
3506.130897  	-0.046020 
3507.562555  	-0.046104 
3508.994214  	-0.046293 
3510.425872  	-0.046365 
3511.857530  	-0.046061 
3513.289188  	-0.045758 
3514.720846  	-0.045621 
3516.152505  	-0.045586 
3517.584163  	-0.045753 
3519.015821  	-0.045771 
3520.447479  	-0.045443 
3521.879137  	-0.045221 
3523.310795  	-0.045499 
3524.742454  	-0.045910 
3526.174112  	-0.045601 
3527.605770  	-0.045161 
3529.037428  	-0.045260 
3530.469086  	-0.045189 
3531.900745  	-0.045320 
3533.332403  	-0.045684 
3534.764061  	-0.045257 
3536.195719  	-0.045100 
3537.627377  	-0.045513 
3539.059035  	-0.045097 
3540.490694  	-0.045044 
3541.922352  	-0.045659 
3543.354010  	-0.045272 
3544.785668  	-0.044736 
3546.217326  	-0.045330 
3547.648985  	-0.046074 
3549.080643  	-0.046272 
3550.512301  	-0.045967 
3551.943959  	-0.045455 
3553.375617  	-0.045432 
3554.807276  	-0.045818 
3556.238934  	-0.045866 
3557.670592  	-0.045615 
3559.102250  	-0.045722 
3560.533908  	-0.045991 
3561.965566  	-0.045913 
3563.397225  	-0.045699 
3564.828883  	-0.045086 
3566.260541  	-0.044540 
3567.692199  	-0.045663 
3569.123857  	-0.046462 
3570.555516  	-0.045837 
3571.987174  	-0.045873 
3573.418832  	-0.046340 
3574.850490  	-0.046166 
3576.282148  	-0.045847 
3577.713807  	-0.046092 
3579.145465  	-0.046806 
3580.577123  	-0.046990 
3582.008781  	-0.046275 
3583.440439  	-0.045752 
3584.872097  	-0.045515 
3586.303756  	-0.045140 
3587.735414  	-0.045712 
3589.167072  	-0.047151 
3590.598730  	-0.047139 
3592.030388  	-0.046238 
3593.462047  	-0.045631 
3594.893705  	-0.045614 
3596.325363  	-0.046161 
3597.757021  	-0.046756 
3599.188679  	-0.046396 
3600.620337  	-0.045914 
3602.051996  	-0.046463 
3603.483654  	-0.046632 
3604.915312  	-0.046357 
3606.346970  	-0.046542 
3607.778628  	-0.046491 
3609.210287  	-0.046824 
3610.641945  	-0.047522 
3612.073603  	-0.046841 
3613.505261  	-0.046441 
3614.936919  	-0.047361 
3616.368578  	-0.047041 
3617.800236  	-0.045874 
3619.231894  	-0.045787 
3620.663552  	-0.046852 
3622.095210  	-0.047240 
3623.526868  	-0.046828 
3624.958527  	-0.046544 
3626.390185  	-0.045882 
3627.821843  	-0.044493 
3629.253501  	-0.045282 
3630.685159  	-0.047619 
3632.116818  	-0.046722 
3633.548476  	-0.046086 
3634.980134  	-0.046714 
3636.411792  	-0.046787 
3637.843450  	-0.046701 
3639.275109  	-0.047102 
3640.706767  	-0.046988 
3642.138425  	-0.046570 
3643.570083  	-0.046767 
3645.001741  	-0.046713 
3646.433399  	-0.045778 
3647.865058  	-0.045234 
3649.296716  	-0.045484 
3650.728374  	-0.045998 
3652.160032  	-0.047573 
3653.591690  	-0.047347 
3655.023349  	-0.045843 
3656.455007  	-0.045885 
3657.886665  	-0.047014 
3659.318323  	-0.046660 
3660.749981  	-0.046525 
3662.181639  	-0.046878 
3663.613298  	-0.046944 
3665.044956  	-0.046789 
3666.476614  	-0.046233 
3667.908272  	-0.045579 
3669.339930  	-0.045404 
3670.771589  	-0.046120 
3672.203247  	-0.046130 
3673.634905  	-0.044755 
3675.066563  	-0.044465 
3676.498221  	-0.047549 
3677.929880  	-0.047149 
3679.361538  	-0.046138 
3680.793196  	-0.046715 
3682.224854  	-0.046762 
3683.656512  	-0.046416 
3685.088170  	-0.046251 
3686.519829  	-0.045574 
3687.951487  	-0.045458 
3689.383145  	-0.046514 
3690.814803  	-0.046741 
3692.246461  	-0.046911 
3693.678120  	-0.047105 
3695.109778  	-0.046741 
3696.541436  	-0.046637 
3697.973094  	-0.046625 
3699.404752  	-0.045846 
3700.836411  	-0.045250 
3702.268069  	-0.046192 
3703.699727  	-0.047107 
3705.131385  	-0.046899 
3706.563043  	-0.046732 
3707.994701  	-0.046497 
3709.426360  	-0.045872 
3710.858018  	-0.045785 
3712.289676  	-0.046766 
3713.721334  	-0.048144 
3715.152992  	-0.048426 
3716.584651  	-0.047540 
3718.016309  	-0.046923 
3719.447967  	-0.046896 
3720.879625  	-0.046335 
3722.311283  	-0.045845 
3723.742941  	-0.046130 
3725.174600  	-0.046287 
3726.606258  	-0.046411 
3728.037916  	-0.046721 
3729.469574  	-0.046556 
3730.901232  	-0.046356 
3732.332891  	-0.046630 
3733.764549  	-0.046012 
3735.196207  	-0.045172 
3736.627865  	-0.047738 
3738.059523  	-0.049320 
3739.491182  	-0.048192 
3740.922840  	-0.047970 
3742.354498  	-0.047510 
3743.786156  	-0.046193 
3745.217814  	-0.048684 
3746.649472  	-0.049582 
3748.081131  	-0.047565 
3749.512789  	-0.047563 
3750.944447  	-0.048401 
3752.376105  	-0.047929 
3753.807763  	-0.048653 
3755.239422  	-0.048545 
3756.671080  	-0.048214 
3758.102738  	-0.048534 
3759.534396  	-0.048190 
3760.966054  	-0.048576 
3762.397712  	-0.049229 
3763.829371  	-0.048410 
3765.261029  	-0.047969 
3766.692687  	-0.048294 
3768.124345  	-0.047880 
3769.556003  	-0.048034 
3770.987662  	-0.049003 
3772.419320  	-0.049057 
3773.850978  	-0.048704 
3775.282636  	-0.048591 
3776.714294  	-0.048567 
3778.145953  	-0.048093 
3779.577611  	-0.047701 
3781.009269  	-0.048176 
3782.440927  	-0.048098 
3783.872585  	-0.047676 
3785.304243  	-0.048058 
3786.735902  	-0.048474 
3788.167560  	-0.048363 
3789.599218  	-0.047990 
3791.030876  	-0.047698 
3792.462534  	-0.048164 
3793.894193  	-0.048587 
3795.325851  	-0.048165 
3796.757509  	-0.047857 
3798.189167  	-0.047675 
3799.620825  	-0.046748 
3801.052484  	-0.046264 
3802.484142  	-0.048324 
3803.915800  	-0.048931 
3805.347458  	-0.047390 
3806.779116  	-0.047106 
3808.210774  	-0.049066 
3809.642433  	-0.048872 
3811.074091  	-0.047990 
3812.505749  	-0.048107 
3813.937407  	-0.047841 
3815.369065  	-0.047385 
3816.800724  	-0.048326 
3818.232382  	-0.047987 
3819.664040  	-0.046509 
3821.095698  	-0.047149 
3822.527356  	-0.049904 
3823.959014  	-0.049076 
3825.390673  	-0.047910 
3826.822331  	-0.048379 
3828.253989  	-0.048450 
3829.685647  	-0.047468 
3831.117305  	-0.047454 
3832.548964  	-0.048188 
3833.980622  	-0.048007 
3835.412280  	-0.047358 
3836.843938  	-0.047111 
3838.275596  	-0.047412 
3839.707255  	-0.047659 
3841.138913  	-0.047756 
3842.570571  	-0.048187 
3844.002229  	-0.048717 
3845.433887  	-0.048918 
3846.865545  	-0.048631 
3848.297204  	-0.048267 
3849.728862  	-0.048086 
3851.160520  	-0.047280 
3852.592178  	-0.046350 
3854.023836  	-0.048580 
3855.455495  	-0.049894 
3856.887153  	-0.048936 
3858.318811  	-0.048833 
3859.750469  	-0.048597 
3861.182127  	-0.048102 
3862.613786  	-0.047860 
3864.045444  	-0.047191 
3865.477102  	-0.047525 
3866.908760  	-0.048398 
3868.340418  	-0.047351 
3869.772076  	-0.046956 
3871.203735  	-0.049016 
3872.635393  	-0.048573 
3874.067051  	-0.047814 
3875.498709  	-0.048650 
3876.930367  	-0.048419 
3878.362026  	-0.047466 
3879.793684  	-0.047486 
3881.225342  	-0.048445 
3882.657000  	-0.048517 
3884.088658  	-0.047675 
3885.520316  	-0.047754 
3886.951975  	-0.049365 
3888.383633  	-0.048886 
3889.815291  	-0.047451 
3891.246949  	-0.047495 
3892.678607  	-0.048737 
3894.110266  	-0.049049 
3895.541924  	-0.048854 
3896.973582  	-0.048061 
3898.405240  	-0.047136 
3899.836898  	-0.047468 
3901.268557  	-0.048011 
3902.700215  	-0.047532 
3904.131873  	-0.047697 
3905.563531  	-0.048641 
3906.995189  	-0.048904 
3908.426847  	-0.048741 
3909.858506  	-0.048542 
3911.290164  	-0.048713 
3912.721822  	-0.049217 
3914.153480  	-0.049015 
3915.585138  	-0.048292 
3917.016797  	-0.048021 
3918.448455  	-0.048022 
3919.880113  	-0.048106 
3921.311771  	-0.048460 
3922.743429  	-0.048356 
3924.175088  	-0.048018 
3925.606746  	-0.048363 
3927.038404  	-0.048666 
3928.470062  	-0.048426 
3929.901720  	-0.048249 
3931.333378  	-0.048145 
3932.765037  	-0.048209 
3934.196695  	-0.048646 
3935.628353  	-0.048744 
3937.060011  	-0.048609 
3938.491669  	-0.048681 
3939.923328  	-0.048411 
3941.354986  	-0.047905 
3942.786644  	-0.048069 
3944.218302  	-0.048500 
3945.649960  	-0.048347 
3947.081618  	-0.048204 
3948.513277  	-0.048533 
3949.944935  	-0.048874 
3951.376593  	-0.048923 
3952.808251  	-0.048910 
3954.239909  	-0.048819 
3955.671568  	-0.048697 
3957.103226  	-0.048921 
3958.534884  	-0.049243 
3959.966542  	-0.049029 
3961.398200  	-0.048673 
3962.829859  	-0.048884 
3964.261517  	-0.049176 
3965.693175  	-0.048963 
3967.124833  	-0.048762 
3968.556491  	-0.048768 
3969.988149  	-0.048503 
3971.419808  	-0.048387 
3972.851466  	-0.048798 
3974.283124  	-0.048964 
3975.714782  	-0.048758 
3977.146440  	-0.048692 
3978.578099  	-0.048776 
3980.009757  	-0.049057 
3981.441415  	-0.049136 
3982.873073  	-0.048565 
3984.304731  	-0.048246 
3985.736389  	-0.048585 
3987.168048  	-0.048659 
3988.599706  	-0.048236 
3990.031364  	-0.047972 
3991.463022  	-0.048285 
3992.894680  	-0.048775 
3994.326339  	-0.048895 
3995.757997  	-0.048905 
3997.189655  	-0.048856 
3998.621313  	-0.048470 
4000.052971  	-0.048265 