##TITLE=No Description
##DATA TYPE=INFRARED SPECTRUM
##XUNITS=1/CM
##YUNITS=%T
399.432634  	100.389583 
400.864292  	99.595816 
402.295950  	101.810372 
403.727608  	99.376574 
405.159267  	96.136804 
406.590925  	100.238282 
408.022583  	101.450572 
409.454241  	98.666943 
410.885899  	99.743784 
412.317558  	103.199003 
413.749216  	106.537838 
415.180874  	104.900079 
416.612532  	100.147504 
418.044190  	98.920071 
419.475848  	101.759524 
420.907507  	104.207733 
422.339165  	105.467047 
423.770823  	104.147398 
425.202481  	104.514650 
426.634139  	107.184489 
428.065798  	107.662308 
429.497456  	107.029059 
430.929114  	105.113373 
432.360772  	102.262683 
433.792430  	102.225592 
435.224089  	102.710906 
436.655747  	103.322364 
438.087405  	105.150183 
439.519063  	105.173072 
440.950721  	103.985296 
442.382379  	103.096902 
443.814038  	101.942066 
445.245696  	102.930745 
446.677354  	105.378099 
448.109012  	105.037231 
449.540670  	103.728277 
450.972329  	103.982778 
452.403987  	103.773577 
453.835645  	102.928260 
455.267303  	103.078496 
456.698961  	103.281752 
458.130619  	102.825669 
459.562278  	103.589535 
460.993936  	104.845326 
462.425594  	105.052096 
463.857252  	105.185686 
465.288910  	105.594009 
466.720569  	104.989133 
468.152227  	104.716509 
469.583885  	105.658272 
471.015543  	105.653774 
472.447201  	105.139280 
473.878860  	106.056897 
475.310518  	107.027479 
476.742176  	107.115908 
478.173834  	106.991351 
479.605492  	106.768846 
481.037150  	106.035208 
482.468809  	105.737992 
483.900467  	106.550781 
485.332125  	106.214024 
486.763783  	104.182709 
488.195441  	103.516345 
489.627100  	104.711267 
491.058758  	105.521428 
492.490416  	105.243912 
493.922074  	105.020026 
495.353732  	105.572825 
496.785391  	106.255479 
498.217049  	106.106234 
499.648707  	106.028809 
501.080365  	106.796567 
502.512023  	107.212497 
503.943681  	106.651509 
505.375340  	106.134081 
506.806998  	106.110800 
508.238656  	106.250167 
509.670314  	106.103766 
511.101972  	106.055347 
512.533631  	106.270302 
513.965289  	106.212867 
515.396947  	106.099264 
516.828605  	106.174393 
518.260263  	106.219939 
519.691921  	106.287279 
521.123580  	106.090126 
522.555238  	105.766816 
523.986896  	105.791895 
525.418554  	105.606872 
526.850212  	105.278184 
528.281871  	105.573455 
529.713529  	105.857734 
531.145187  	105.701999 
532.576845  	105.503861 
534.008503  	105.498468 
535.440162  	105.723768 
536.871820  	105.835296 
538.303478  	105.815652 
539.735136  	106.079491 
541.166794  	106.336075 
542.598452  	106.397072 
544.030111  	106.506418 
545.461769  	106.553625 
546.893427  	106.421726 
548.325085  	106.154970 
549.756743  	106.186588 
551.188402  	106.648198 
552.620060  	106.761874 
554.051718  	106.725021 
555.483376  	107.010770 
556.915034  	107.012438 
558.346692  	106.894262 
559.778351  	106.768316 
561.210009  	106.383702 
562.641667  	106.578787 
564.073325  	106.954853 
565.504983  	106.653408 
566.936642  	106.745355 
568.368300  	107.197119 
569.799958  	107.162367 
571.231616  	107.103750 
572.663274  	106.944292 
574.094933  	106.712924 
575.526591  	106.676444 
576.958249  	106.303982 
578.389907  	106.168646 
579.821565  	106.635684 
581.253223  	106.709325 
582.684882  	106.575291 
584.116540  	106.750161 
585.548198  	106.828399 
586.979856  	106.812542 
588.411514  	106.699819 
589.843173  	106.610459 
591.274831  	106.866172 
592.706489  	106.945656 
594.138147  	106.718892 
595.569805  	106.793691 
597.001464  	107.126780 
598.433122  	107.304025 
599.864780  	107.133551 
601.296438  	106.922075 
602.728096  	107.029168 
604.159754  	107.128584 
605.591413  	107.079587 
607.023071  	107.053474 
608.454729  	107.008338 
609.886387  	107.074904 
611.318045  	107.157133 
612.749704  	107.115442 
614.181362  	107.234804 
615.613020  	107.327049 
617.044678  	107.265093 
618.476336  	107.354764 
619.907994  	107.384756 
621.339653  	107.366417 
622.771311  	107.438041 
624.202969  	107.300362 
625.634627  	107.266378 
627.066285  	107.475599 
628.497944  	107.440950 
629.929602  	107.411231 
631.361260  	107.481463 
632.792918  	107.364644 
634.224576  	107.404214 
635.656235  	107.572787 
637.087893  	107.537886 
638.519551  	107.436895 
639.951209  	107.287157 
641.382867  	107.262664 
642.814525  	107.409899 
644.246184  	107.316213 
645.677842  	107.190838 
647.109500  	107.235834 
648.541158  	107.231600 
649.972816  	107.430560 
651.404475  	107.586451 
652.836133  	107.298422 
654.267791  	107.294438 
655.699449  	107.674205 
657.131107  	107.731712 
658.562766  	107.625273 
659.994424  	107.584669 
661.426082  	107.515566 
662.857740  	107.513971 
664.289398  	107.485873 
665.721056  	107.457455 
667.152715  	107.679335 
668.584373  	107.883450 
670.016031  	107.638627 
671.447689  	107.491413 
672.879347  	107.413287 
674.311006  	107.400041 
675.742664  	107.445405 
677.174322  	107.498280 
678.605980  	107.570924 
680.037638  	107.648148 
681.469296  	107.680492 
682.900955  	107.626816 
684.332613  	107.535334 
685.764271  	107.505449 
687.195929  	107.417027 
688.627587  	107.236985 
690.059246  	107.222264 
691.490904  	107.359197 
692.922562  	107.468769 
694.354220  	107.497141 
695.785878  	107.417082 
697.217537  	107.403732 
698.649195  	107.550185 
700.080853  	107.588531 
701.512511  	107.542260 
702.944169  	107.646652 
704.375827  	107.725481 
705.807486  	107.610581 
707.239144  	107.499262 
708.670802  	107.532426 
710.102460  	107.614066 
711.534118  	107.645824 
712.965777  	107.709670 
714.397435  	107.799880 
715.829093  	107.701165 
717.260751  	107.548500 
718.692409  	107.639909 
720.124067  	107.715414 
721.555726  	107.540028 
722.987384  	107.421286 
724.419042  	107.455194 
725.850700  	107.497974 
727.282358  	107.510740 
728.714017  	107.425706 
730.145675  	107.382955 
731.577333  	107.503872 
733.008991  	107.515808 
734.440649  	107.476207 
735.872308  	107.592167 
737.303966  	107.583372 
738.735624  	107.475983 
740.167282  	107.524209 
741.598940  	107.539407 
743.030598  	107.517694 
744.462257  	107.591765 
745.893915  	107.676530 
747.325573  	107.803817 
748.757231  	107.822905 
750.188889  	107.652327 
751.620548  	107.658682 
753.052206  	107.794795 
754.483864  	107.817617 
755.915522  	107.801515 
757.347180  	107.594851 
758.778839  	107.271057 
760.210497  	107.239861 
761.642155  	107.397814 
763.073813  	107.479036 
764.505471  	107.406915 
765.937129  	107.204122 
767.368788  	107.143170 
768.800446  	107.189963 
770.232104  	107.076742 
771.663762  	106.988768 
773.095420  	107.020654 
774.527079  	107.033471 
775.958737  	107.108117 
777.390395  	107.180095 
778.822053  	107.131770 
780.253711  	107.111586 
781.685369  	107.111167 
783.117028  	107.049689 
784.548686  	107.010012 
785.980344  	106.943639 
787.412002  	106.812666 
788.843660  	106.730169 
790.275319  	106.633563 
791.706977  	106.456213 
793.138635  	106.292643 
794.570293  	106.070548 
796.001951  	105.833239 
797.433610  	105.818737 
798.865268  	105.816615 
800.296926  	105.615431 
801.728584  	105.433931 
803.160242  	105.145355 
804.591900  	104.536127 
806.023559  	103.892429 
807.455217  	103.386759 
808.886875  	103.018083 
810.318533  	102.964334 
811.750191  	103.386591 
813.181850  	104.147788 
814.613508  	104.820133 
816.045166  	105.251196 
817.476824  	105.590585 
818.908482  	105.708517 
820.340141  	105.669472 
821.771799  	105.815782 
823.203457  	105.920503 
824.635115  	105.797461 
826.066773  	105.726347 
827.498431  	105.695848 
828.930090  	105.629110 
830.361748  	105.546288 
831.793406  	105.326280 
833.225064  	105.050425 
834.656722  	104.732677 
836.088381  	104.203010 
837.520039  	103.285654 
838.951697  	101.422025 
840.383355  	99.052384 
841.815013  	98.404214 
843.246671  	100.229120 
844.678330  	102.518664 
846.109988  	103.905436 
847.541646  	104.652168 
848.973304  	105.061737 
850.404962  	105.339132 
851.836621  	105.578188 
853.268279  	105.641031 
854.699937  	105.654742 
856.131595  	105.760097 
857.563253  	105.843705 
858.994912  	105.942213 
860.426570  	106.063479 
861.858228  	106.091389 
863.289886  	106.136096 
864.721544  	106.242135 
866.153202  	106.276053 
867.584861  	106.312363 
869.016519  	106.395684 
870.448177  	106.393487 
871.879835  	106.363329 
873.311493  	106.413282 
874.743152  	106.474609 
876.174810  	106.487275 
877.606468  	106.437741 
879.038126  	106.391851 
880.469784  	106.472434 
881.901443  	106.577323 
883.333101  	106.562486 
884.764759  	106.526453 
886.196417  	106.480224 
887.628075  	106.365877 
889.059733  	106.284544 
890.491392  	106.193044 
891.923050  	105.993945 
893.354708  	105.728077 
894.786366  	105.248411 
896.218024  	104.507678 
897.649683  	103.829999 
899.081341  	103.434667 
900.512999  	103.487293 
901.944657  	104.079002 
903.376315  	104.881561 
904.807973  	105.563694 
906.239632  	106.012722 
907.671290  	106.230139 
909.102948  	106.415690 
910.534606  	106.648410 
911.966264  	106.775273 
913.397923  	106.798494 
914.829581  	106.844189 
916.261239  	106.979290 
917.692897  	107.114273 
919.124555  	107.079714 
920.556214  	106.945543 
921.987872  	106.861777 
923.419530  	106.877550 
924.851188  	107.023798 
926.282846  	107.109027 
927.714504  	107.023403 
929.146163  	106.998860 
930.577821  	107.028399 
932.009479  	106.973483 
933.441137  	106.930997 
934.872795  	106.880261 
936.304454  	106.713521 
937.736112  	106.436165 
939.167770  	106.149034 
940.599428  	106.068783 
942.031086  	106.188264 
943.462744  	106.292375 
944.894403  	106.360571 
946.326061  	106.437635 
947.757719  	106.529091 
949.189377  	106.627128 
950.621035  	106.631883 
952.052694  	106.562234 
953.484352  	106.502372 
954.916010  	106.411756 
956.347668  	106.308347 
957.779326  	106.211674 
959.210985  	106.093682 
960.642643  	105.976814 
962.074301  	105.769219 
963.505959  	105.382181 
964.937617  	104.869143 
966.369275  	104.173495 
967.800934  	103.101543 
969.232592  	101.439318 
970.664250  	99.283430 
972.095908  	97.461009 
973.527566  	96.973964 
974.959225  	97.944464 
976.390883  	99.660439 
977.822541  	101.461032 
979.254199  	102.961788 
980.685857  	104.037712 
982.117516  	104.741828 
983.549174  	105.145357 
984.980832  	105.365538 
986.412490  	105.465950 
987.844148  	105.414650 
989.275806  	105.216650 
990.707465  	104.785269 
992.139123  	103.990261 
993.570781  	102.875422 
995.002439  	101.379241 
996.434097  	99.688201 
997.865756  	98.856727 
999.297414  	99.573802 
1000.729072  	101.230144 
1002.160730  	102.901649 
1003.592388  	104.145131 
1005.024046  	104.906717 
1006.455705  	105.360132 
1007.887363  	105.688944 
1009.319021  	105.942730 
1010.750679  	106.114228 
1012.182337  	106.204025 
1013.613996  	106.305337 
1015.045654  	106.478539 
1016.477312  	106.597390 
1017.908970  	106.607572 
1019.340628  	106.629475 
1020.772287  	106.683496 
1022.203945  	106.714733 
1023.635603  	106.778384 
1025.067261  	106.854776 
1026.498919  	106.822030 
1027.930577  	106.781364 
1029.362236  	106.846186 
1030.793894  	106.869336 
1032.225552  	106.824403 
1033.657210  	106.794127 
1035.088868  	106.736050 
1036.520527  	106.711751 
1037.952185  	106.744821 
1039.383843  	106.726104 
1040.815501  	106.686348 
1042.247159  	106.610267 
1043.678818  	106.451710 
1045.110476  	106.372535 
1046.542134  	106.446579 
1047.973792  	106.558548 
1049.405450  	106.639138 
1050.837108  	106.743243 
1052.268767  	106.900222 
1053.700425  	106.984070 
1055.132083  	107.009701 
1056.563741  	107.109411 
1057.995399  	107.156496 
1059.427058  	107.099150 
1060.858716  	107.082212 
1062.290374  	107.105450 
1063.722032  	107.156679 
1065.153690  	107.173979 
1066.585348  	107.108853 
1068.017007  	107.126196 
1069.448665  	107.187717 
1070.880323  	107.185572 
1072.311981  	107.253350 
1073.743639  	107.331933 
1075.175298  	107.304348 
1076.606956  	107.245931 
1078.038614  	107.194421 
1079.470272  	107.198651 
1080.901930  	107.175345 
1082.333589  	107.029939 
1083.765247  	106.999057 
1085.196905  	107.124678 
1086.628563  	107.151546 
1088.060221  	107.084759 
1089.491879  	107.052136 
1090.923538  	107.034434 
1092.355196  	106.964155 
1093.786854  	106.861807 
1095.218512  	106.772173 
1096.650170  	106.614502 
1098.081829  	106.399165 
1099.513487  	106.198383 
1100.945145  	105.974307 
1102.376803  	105.857851 
1103.808461  	105.943633 
1105.240120  	106.097294 
1106.671778  	106.316447 
1108.103436  	106.590419 
1109.535094  	106.775721 
1110.966752  	106.868772 
1112.398410  	106.912148 
1113.830069  	106.956080 
1115.261727  	107.055513 
1116.693385  	107.159652 
1118.125043  	107.272197 
1119.556701  	107.344551 
1120.988360  	107.270801 
1122.420018  	107.224415 
1123.851676  	107.307336 
1125.283334  	107.315315 
1126.714992  	107.231724 
1128.146650  	107.220943 
1129.578309  	107.240706 
1131.009967  	107.182121 
1132.441625  	107.124419 
1133.873283  	107.105666 
1135.304941  	107.027665 
1136.736600  	106.923934 
1138.168258  	106.805255 
1139.599916  	106.587806 
1141.031574  	106.357281 
1142.463232  	106.132224 
1143.894891  	105.846273 
1145.326549  	105.576450 
1146.758207  	105.274155 
1148.189865  	104.869476 
1149.621523  	104.459564 
1151.053181  	104.093829 
1152.484840  	103.828781 
1153.916498  	103.692172 
1155.348156  	103.622936 
1156.779814  	103.575272 
1158.211472  	103.457822 
1159.643131  	103.225810 
1161.074789  	102.912519 
1162.506447  	102.458024 
1163.938105  	101.842892 
1165.369763  	101.178618 
1166.801421  	100.671710 
1168.233080  	100.587672 
1169.664738  	101.090788 
1171.096396  	102.155852 
1172.528054  	103.438392 
1173.959712  	104.550376 
1175.391371  	105.386291 
1176.823029  	106.005638 
1178.254687  	106.451811 
1179.686345  	106.761372 
1181.118003  	106.966271 
1182.549662  	107.109331 
1183.981320  	107.222984 
1185.412978  	107.270775 
1186.844636  	107.287669 
1188.276294  	107.312340 
1189.707952  	107.298324 
1191.139611  	107.299058 
1192.571269  	107.294640 
1194.002927  	107.210845 
1195.434585  	107.199744 
1196.866243  	107.286086 
1198.297902  	107.298445 
1199.729560  	107.248773 
1201.161218  	107.217008 
1202.592876  	107.227369 
1204.024534  	107.268947 
1205.456193  	107.271956 
1206.887851  	107.224166 
1208.319509  	107.151563 
1209.751167  	107.075032 
1211.182825  	107.014414 
1212.614483  	106.935888 
1214.046142  	106.850647 
1215.477800  	106.774770 
1216.909458  	106.684883 
1218.341116  	106.628170 
1219.772774  	106.619631 
1221.204433  	106.661867 
1222.636091  	106.769252 
1224.067749  	106.871584 
1225.499407  	106.982767 
1226.931065  	107.118273 
1228.362723  	107.179141 
1229.794382  	107.210782 
1231.226040  	107.258530 
1232.657698  	107.255519 
1234.089356  	107.257572 
1235.521014  	107.290473 
1236.952673  	107.308111 
1238.384331  	107.318365 
1239.815989  	107.295721 
1241.247647  	107.253198 
1242.679305  	107.218758 
1244.110964  	107.175665 
1245.542622  	107.141717 
1246.974280  	107.075944 
1248.405938  	106.953496 
1249.837596  	106.804552 
1251.269254  	106.568860 
1252.700913  	106.226274 
1254.132571  	105.858741 
1255.564229  	105.676957 
1256.995887  	105.863528 
1258.427545  	106.208647 
1259.859204  	106.512902 
1261.290862  	106.803198 
1262.722520  	107.004151 
1264.154178  	107.122069 
1265.585836  	107.225054 
1267.017495  	107.264560 
1268.449153  	107.301546 
1269.880811  	107.344233 
1271.312469  	107.350204 
1272.744127  	107.387336 
1274.175785  	107.387019 
1275.607444  	107.364741 
1277.039102  	107.395568 
1278.470760  	107.335429 
1279.902418  	107.249239 
1281.334076  	107.260760 
1282.765735  	107.236970 
1284.197393  	107.169339 
1285.629051  	107.089302 
1287.060709  	106.999042 
1288.492367  	106.934794 
1289.924025  	106.790322 
1291.355684  	106.603498 
1292.787342  	106.477410 
1294.219000  	106.331096 
1295.650658  	106.214525 
1297.082316  	106.191441 
1298.513975  	106.197694 
1299.945633  	106.181573 
1301.377291  	106.024789 
1302.808949  	105.747291 
1304.240607  	105.594115 
1305.672266  	105.790067 
1307.103924  	106.318186 
1308.535582  	106.819401 
1309.967240  	107.069572 
1311.398898  	107.195700 
1312.830556  	107.212343 
1314.262215  	107.195139 
1315.693873  	107.226014 
1317.125531  	107.140893 
1318.557189  	107.038173 
1319.988847  	107.009880 
1321.420506  	106.908860 
1322.852164  	106.760336 
1324.283822  	106.514761 
1325.715480  	106.245934 
1327.147138  	106.144369 
1328.578796  	106.065440 
1330.010455  	105.996828 
1331.442113  	106.049880 
1332.873771  	106.176872 
1334.305429  	106.358157 
1335.737087  	106.448941 
1337.168746  	106.412471 
1338.600404  	106.399188 
1340.032062  	106.319047 
1341.463720  	106.245938 
1342.895378  	106.187387 
1344.327037  	105.987691 
1345.758695  	105.797616 
1347.190353  	105.519945 
1348.622011  	105.073659 
1350.053669  	104.674442 
1351.485327  	104.109948 
1352.916986  	103.326941 
1354.348644  	102.297147 
1355.780302  	100.872591 
1357.211960  	99.640605 
1358.643618  	98.959232 
1360.075277  	99.012448 
1361.506935  	99.772360 
1362.938593  	100.488202 
1364.370251  	100.861244 
1365.801909  	100.741302 
1367.233568  	99.640425 
1368.665226  	97.554749 
1370.096884  	93.835659 
1371.528542  	88.512670 
1372.960200  	82.587232 
1374.391858  	76.000552 
1375.823517  	72.789165 
1377.255175  	74.847003 
1378.686833  	80.640870 
1380.118491  	87.923547 
1381.550149  	93.593495 
1382.981808  	98.233405 
1384.413466  	101.514593 
1385.845124  	103.440908 
1387.276782  	104.919383 
1388.708440  	105.773485 
1390.140098  	106.264687 
1391.571757  	106.531009 
1393.003415  	106.639215 
1394.435073  	106.834557 
1395.866731  	106.960475 
1397.298389  	107.036814 
1398.730048  	107.121522 
1400.161706  	107.221348 
1401.593364  	107.299486 
1403.025022  	107.198292 
1404.456680  	107.176799 
1405.888339  	107.325996 
1407.319997  	107.297857 
1408.751655  	107.264225 
1410.183313  	107.249997 
1411.614971  	107.204759 
1413.046629  	107.184461 
1414.478288  	107.063660 
1415.909946  	107.001898 
1417.341604  	106.961471 
1418.773262  	106.794295 
1420.204920  	106.835919 
1421.636579  	106.730181 
1423.068237  	106.538744 
1424.499895  	106.471837 
1425.931553  	106.216450 
1427.363211  	105.950961 
1428.794870  	105.513570 
1430.226528  	104.658785 
1431.658186  	103.615538 
1433.089844  	101.958288 
1434.521502  	100.350388 
1435.953160  	99.517652 
1437.384819  	99.580745 
1438.816477  	99.754158 
1440.248135  	99.507168 
1441.679793  	98.741095 
1443.111451  	97.524396 
1444.543110  	95.646072 
1445.974768  	93.402805 
1447.406426  	90.952749 
1448.838084  	88.339276 
1450.269742  	86.918063 
1451.701400  	86.092803 
1453.133059  	85.703898 
1454.564717  	85.740465 
1455.996375  	85.572156 
1457.428033  	86.047760 
1458.859691  	86.502618 
1460.291350  	86.970257 
1461.723008  	88.080158 
1463.154666  	89.058851 
1464.586324  	90.864246 
1466.017982  	93.495177 
1467.449641  	95.415429 
1468.881299  	97.674116 
1470.312957  	99.546531 
1471.744615  	100.964846 
1473.176273  	103.072901 
1474.607931  	104.125318 
1476.039590  	104.913502 
1477.471248  	105.812738 
1478.902906  	106.158311 
1480.334564  	106.518597 
1481.766222  	106.818371 
1483.197881  	107.021818 
1484.629539  	107.283652 
1486.061197  	107.334583 
1487.492855  	107.476055 
1488.924513  	107.671977 
1490.356172  	107.657385 
1491.787830  	107.901399 
1493.219488  	107.998367 
1494.651146  	107.974932 
1496.082804  	108.164052 
1497.514462  	108.247321 
1498.946121  	108.256650 
1500.377779  	108.347024 
1501.809437  	108.372689 
1503.241095  	108.436933 
1504.672753  	108.396669 
1506.104412  	108.225666 
1507.536070  	108.421875 
1508.967728  	108.475076 
1510.399386  	108.530948 
1511.831044  	108.711573 
1513.262702  	108.736759 
1514.694361  	108.656116 
1516.126019  	108.560723 
1517.557677  	108.610461 
1518.989335  	108.691021 
1520.420993  	108.589587 
1521.852652  	108.755235 
1523.284310  	108.929617 
1524.715968  	108.780042 
1526.147626  	108.794435 
1527.579284  	108.895136 
1529.010943  	108.926983 
1530.442601  	108.983706 
1531.874259  	108.864645 
1533.305917  	108.782087 
1534.737575  	108.969673 
1536.169233  	108.934521 
1537.600892  	108.904214 
1539.032550  	108.980782 
1540.464208  	109.008384 
1541.895866  	109.147378 
1543.327524  	109.089210 
1544.759183  	109.062272 
1546.190841  	109.236221 
1547.622499  	109.178567 
1549.054157  	109.087952 
1550.485815  	109.149157 
1551.917473  	109.104668 
1553.349132  	109.062014 
1554.780790  	109.130263 
1556.212448  	109.139412 
1557.644106  	109.112912 
1559.075764  	109.240527 
1560.507423  	109.483510 
1561.939081  	109.394775 
1563.370739  	109.295248 
1564.802397  	109.364206 
1566.234055  	109.413981 
1567.665714  	109.328547 
1569.097372  	109.358437 
1570.529030  	109.458478 
1571.960688  	109.448373 
1573.392346  	109.423445 
1574.824004  	109.401984 
1576.255663  	109.510369 
1577.687321  	109.575482 
1579.118979  	109.521398 
1580.550637  	109.562254 
1581.982295  	109.586458 
1583.413954  	109.561105 
1584.845612  	109.592739 
1586.277270  	109.580003 
1587.708928  	109.550377 
1589.140586  	109.557185 
1590.572245  	109.559032 
1592.003903  	109.610522 
1593.435561  	109.639360 
1594.867219  	109.594133 
1596.298877  	109.576648 
1597.730535  	109.579583 
1599.162194  	109.584320 
1600.593852  	109.552486 
1602.025510  	109.485018 
1603.457168  	109.484725 
1604.888826  	109.476302 
1606.320485  	109.432222 
1607.752143  	109.449637 
1609.183801  	109.484372 
1610.615459  	109.525266 
1612.047117  	109.543673 
1613.478775  	109.462759 
1614.910434  	109.404541 
1616.342092  	109.459124 
1617.773750  	109.550723 
1619.205408  	109.527587 
1620.637066  	109.417414 
1622.068725  	109.355095 
1623.500383  	109.451217 
1624.932041  	109.502251 
1626.363699  	109.484089 
1627.795357  	109.492799 
1629.227016  	109.492276 
1630.658674  	109.481169 
1632.090332  	109.447646 
1633.521990  	109.379941 
1634.953648  	109.348611 
1636.385306  	109.486573 
1637.816965  	109.551737 
1639.248623  	109.503897 
1640.680281  	109.529187 
1642.111939  	109.559258 
1643.543597  	109.438927 
1644.975256  	109.332916 
1646.406914  	109.405933 
1647.838572  	109.522463 
1649.270230  	109.550358 
1650.701888  	109.499300 
1652.133547  	109.419073 
1653.565205  	109.711227 
1654.996863  	109.789696 
1656.428521  	109.670856 
1657.860179  	109.658120 
1659.291837  	109.670997 
1660.723496  	109.663744 
1662.155154  	109.657308 
1663.586812  	109.638510 
1665.018470  	109.630223 
1666.450128  	109.614634 
1667.881787  	109.598047 
1669.313445  	109.640781 
1670.745103  	109.740225 
1672.176761  	109.746803 
1673.608419  	109.643390 
1675.040077  	109.644724 
1676.471736  	109.785142 
1677.903394  	109.667068 
1679.335052  	109.540324 
1680.766710  	109.553966 
1682.198368  	109.459124 
1683.630027  	109.424318 
1685.061685  	109.841837 
1686.493343  	109.786683 
1687.925001  	109.683552 
1689.356659  	109.689545 
1690.788318  	109.709171 
1692.219976  	109.705751 
1693.651634  	109.566772 
1695.083292  	109.430042 
1696.514950  	109.655526 
1697.946608  	109.655398 
1699.378267  	109.531699 
1700.809925  	109.757052 
1702.241583  	109.718971 
1703.673241  	109.569591 
1705.104899  	109.607877 
1706.536558  	109.730871 
1707.968216  	109.714067 
1709.399874  	109.671371 
1710.831532  	109.677023 
1712.263190  	109.688184 
1713.694849  	109.667092 
1715.126507  	109.632005 
1716.558165  	109.584840 
1717.989823  	109.702582 
1719.421481  	109.896134 
1720.853139  	109.842372 
1722.284798  	109.774843 
1723.716456  	109.769954 
1725.148114  	109.745912 
1726.579772  	109.762475 
1728.011430  	109.749209 
1729.443089  	109.678389 
1730.874747  	109.723962 
1732.306405  	109.732951 
1733.738063  	109.712852 
1735.169721  	109.958438 
1736.601379  	109.909926 
1738.033038  	109.775753 
1739.464696  	109.800074 
1740.896354  	109.829512 
1742.328012  	109.799077 
1743.759670  	109.827139 
1745.191329  	109.775136 
1746.622987  	109.668292 
1748.054645  	109.668312 
1749.486303  	109.762746 
1750.917961  	109.828859 
1752.349620  	109.815833 
1753.781278  	109.736426 
1755.212936  	109.679901 
1756.644594  	109.747256 
1758.076252  	109.843963 
1759.507910  	109.814014 
1760.939569  	109.792818 
1762.371227  	109.839530 
1763.802885  	109.859946 
1765.234543  	109.827697 
1766.666201  	109.758925 
1768.097860  	109.758005 
1769.529518  	109.801212 
1770.961176  	109.778846 
1772.392834  	109.908382 
1773.824492  	110.016660 
1775.256150  	109.889761 
1776.687809  	109.841834 
1778.119467  	109.834430 
1779.551125  	109.775011 
1780.982783  	109.832907 
1782.414441  	109.898459 
1783.846100  	109.890519 
1785.277758  	109.881225 
1786.709416  	109.817750 
1788.141074  	109.820604 
1789.572732  	109.839288 
1791.004391  	109.752578 
1792.436049  	109.817990 
1793.867707  	109.934936 
1795.299365  	109.868967 
1796.731023  	109.853511 
1798.162681  	109.848742 
1799.594340  	109.832534 
1801.025998  	109.906848 
1802.457656  	109.918720 
1803.889314  	109.920888 
1805.320972  	109.958460 
1806.752631  	109.910838 
1808.184289  	109.914417 
1809.615947  	109.961012 
1811.047605  	109.889637 
1812.479263  	109.845360 
1813.910922  	109.863066 
1815.342580  	109.861866 
1816.774238  	109.897551 
1818.205896  	109.917351 
1819.637554  	109.886107 
1821.069212  	109.884056 
1822.500871  	109.889752 
1823.932529  	109.861262 
1825.364187  	109.848099 
1826.795845  	109.876411 
1828.227503  	109.875992 
1829.659162  	109.835558 
1831.090820  	109.779191 
1832.522478  	109.763715 
1833.954136  	109.848616 
1835.385794  	109.901664 
1836.817452  	109.818229 
1838.249111  	109.853156 
1839.680769  	109.953734 
1841.112427  	109.865571 
1842.544085  	109.774935 
1843.975743  	109.827627 
1845.407402  	109.895588 
1846.839060  	109.899830 
1848.270718  	109.866188 
1849.702376  	109.826057 
1851.134034  	109.754989 
1852.565693  	109.721029 
1853.997351  	109.872773 
1855.429009  	109.977721 
1856.860667  	109.885480 
1858.292325  	109.813804 
1859.723983  	109.813338 
1861.155642  	109.869867 
1862.587300  	109.922899 
1864.018958  	109.875016 
1865.450616  	109.844304 
1866.882274  	109.754049 
1868.313933  	109.618748 
1869.745591  	109.784324 
1871.177249  	109.903252 
1872.608907  	109.857956 
1874.040565  	109.963626 
1875.472224  	109.988997 
1876.903882  	109.842455 
1878.335540  	109.809638 
1879.767198  	109.841806 
1881.198856  	109.841353 
1882.630514  	109.832499 
1884.062173  	109.868155 
1885.493831  	109.950108 
1886.925489  	109.885722 
1888.357147  	109.795039 
1889.788805  	109.880920 
1891.220464  	109.895614 
1892.652122  	109.804137 
1894.083780  	109.728614 
1895.515438  	109.623914 
1896.947096  	109.609553 
1898.378754  	109.739413 
1899.810413  	109.871311 
1901.242071  	109.886509 
1902.673729  	109.775343 
1904.105387  	109.681359 
1905.537045  	109.645126 
1906.968704  	109.662444 
1908.400362  	109.744611 
1909.832020  	109.741366 
1911.263678  	109.677465 
1912.695336  	109.706886 
1914.126995  	109.788275 
1915.558653  	109.868619 
1916.990311  	109.805859 
1918.421969  	109.615878 
1919.853627  	109.630432 
1921.285285  	109.720846 
1922.716944  	109.817496 
1924.148602  	109.915539 
1925.580260  	109.772780 
1927.011918  	109.656012 
1928.443576  	109.791227 
1929.875235  	109.909740 
1931.306893  	109.906020 
1932.738551  	109.732623 
1934.170209  	109.630272 
1935.601867  	109.883044 
1937.033525  	109.921558 
1938.465184  	109.569178 
1939.896842  	109.436198 
1941.328500  	109.641400 
1942.760158  	109.985295 
1944.191816  	109.995365 
1945.623475  	109.649428 
1947.055133  	109.570445 
1948.486791  	109.652740 
1949.918449  	109.516176 
1951.350107  	109.386573 
1952.781766  	109.398586 
1954.213424  	109.569840 
1955.645082  	109.682477 
1957.076740  	109.519564 
1958.508398  	109.511213 
1959.940056  	109.522954 
1961.371715  	109.287815 
1962.803373  	109.235607 
1964.235031  	109.037446 
1965.666689  	108.588422 
1967.098347  	108.660171 
1968.530006  	108.986278 
1969.961664  	108.972359 
1971.393322  	109.017361 
1972.824980  	109.124378 
1974.256638  	109.090518 
1975.688297  	108.956858 
1977.119955  	108.832274 
1978.551613  	109.048015 
1979.983271  	109.375118 
1981.414929  	109.241530 
1982.846587  	109.111345 
1984.278246  	109.403244 
1985.709904  	109.477033 
1987.141562  	109.334377 
1988.573220  	109.570368 
1990.004878  	109.562177 
1991.436537  	109.128491 
1992.868195  	109.298559 
1994.299853  	109.718175 
1995.731511  	109.688864 
1997.163169  	109.661812 
1998.594827  	109.600279 
2000.026486  	109.387406 
2001.458144  	109.152570 
2002.889802  	108.794410 
2004.321460  	108.724079 
2005.753118  	109.124948 
2007.184777  	109.253552 
2008.616435  	108.954874 
2010.048093  	108.749460 
2011.479751  	108.775373 
2012.911409  	108.916336 
2014.343068  	109.111711 
2015.774726  	109.141323 
2017.206384  	109.057254 
2018.638042  	109.173674 
2020.069700  	109.045052 
2021.501358  	108.488386 
2022.933017  	108.474248 
2024.364675  	108.739800 
2025.796333  	108.663636 
2027.227991  	108.827321 
2028.659649  	109.008185 
2030.091308  	108.993768 
2031.522966  	109.180073 
2032.954624  	108.880116 
2034.386282  	108.511759 
2035.817940  	108.941823 
2037.249599  	109.144224 
2038.681257  	109.038661 
2040.112915  	109.289642 
2041.544573  	109.298938 
2042.976231  	109.094029 
2044.407889  	109.203028 
2045.839548  	109.460293 
2047.271206  	109.527118 
2048.702864  	109.407980 
2050.134522  	109.510939 
2051.566180  	109.649556 
2052.997839  	109.503481 
2054.429497  	109.404558 
2055.861155  	109.310168 
2057.292813  	109.334408 
2058.724471  	109.772553 
2060.156129  	109.914257 
2061.587788  	109.735171 
2063.019446  	110.067728 
2064.451104  	110.472868 
2065.882762  	110.387128 
2067.314420  	110.144153 
2068.746079  	110.047410 
2070.177737  	110.072417 
2071.609395  	109.903738 
2073.041053  	109.810475 
2074.472711  	110.102895 
2075.904370  	110.181161 
2077.336028  	110.091769 
2078.767686  	110.320938 
2080.199344  	110.475543 
2081.631002  	110.405869 
2083.062660  	110.334387 
2084.494319  	110.259821 
2085.925977  	110.208074 
2087.357635  	110.130276 
2088.789293  	110.093656 
2090.220951  	110.110211 
2091.652610  	109.988472 
2093.084268  	109.877524 
2094.515926  	109.914469 
2095.947584  	110.117932 
2097.379242  	110.426187 
2098.810901  	110.386619 
2100.242559  	110.116698 
2101.674217  	110.040226 
2103.105875  	109.926089 
2104.537533  	109.981477 
2105.969191  	110.368070 
2107.400850  	110.469383 
2108.832508  	110.309380 
2110.264166  	110.199960 
2111.695824  	110.059516 
2113.127482  	110.027773 
2114.559141  	110.109392 
2115.990799  	110.156910 
2117.422457  	110.222997 
2118.854115  	110.239855 
2120.285773  	110.116010 
2121.717431  	109.909774 
2123.149090  	109.888975 
2124.580748  	110.094575 
2126.012406  	110.025080 
2127.444064  	109.752689 
2128.875722  	109.823076 
2130.307381  	109.994098 
2131.739039  	109.948869 
2133.170697  	109.850337 
2134.602355  	109.774134 
2136.034013  	109.809574 
2137.465672  	109.764100 
2138.897330  	109.439062 
2140.328988  	109.297988 
2141.760646  	109.544426 
2143.192304  	109.624595 
2144.623962  	109.353855 
2146.055621  	109.260459 
2147.487279  	109.490484 
2148.918937  	109.555820 
2150.350595  	109.345919 
2151.782253  	108.970872 
2153.213912  	108.583898 
2154.645570  	108.607739 
2156.077228  	108.783917 
2157.508886  	108.897229 
2158.940544  	109.114833 
2160.372202  	108.784609 
2161.803861  	108.416553 
2163.235519  	108.652633 
2164.667177  	108.753689 
2166.098835  	108.777314 
2167.530493  	108.986924 
2168.962152  	109.113139 
2170.393810  	109.333172 
2171.825468  	109.250619 
2173.257126  	108.928002 
2174.688784  	109.089301 
2176.120443  	109.117533 
2177.552101  	109.060747 
2178.983759  	109.493273 
2180.415417  	109.505947 
2181.847075  	109.268665 
2183.278733  	109.284567 
2184.710392  	108.987583 
2186.142050  	109.026312 
2187.573708  	109.367719 
2189.005366  	109.015726 
2190.437024  	108.888166 
2191.868683  	109.428675 
2193.300341  	109.563466 
2194.731999  	109.389765 
2196.163657  	109.419993 
2197.595315  	109.520943 
2199.026974  	109.616647 
2200.458632  	109.607935 
2201.890290  	109.487143 
2203.321948  	109.487726 
2204.753606  	109.600669 
2206.185264  	109.567471 
2207.616923  	109.500281 
2209.048581  	109.665839 
2210.480239  	109.868782 
2211.911897  	109.916773 
2213.343555  	109.855250 
2214.775214  	109.614824 
2216.206872  	109.424804 
2217.638530  	109.473123 
2219.070188  	109.549688 
2220.501846  	109.525797 
2221.933504  	109.409043 
2223.365163  	109.435298 
2224.796821  	109.706705 
2226.228479  	109.689263 
2227.660137  	109.398174 
2229.091795  	109.465836 
2230.523454  	109.752058 
2231.955112  	109.816362 
2233.386770  	109.713296 
2234.818428  	109.659732 
2236.250086  	109.776455 
2237.681745  	109.921577 
2239.113403  	109.914576 
2240.545061  	109.815319 
2241.976719  	109.714133 
2243.408377  	109.616999 
2244.840035  	109.577903 
2246.271694  	109.820621 
2247.703352  	110.113283 
2249.135010  	109.924304 
2250.566668  	109.675289 
2251.998326  	109.799973 
2253.429985  	109.835129 
2254.861643  	109.764565 
2256.293301  	109.736365 
2257.724959  	109.568749 
2259.156617  	109.568938 
2260.588276  	109.755718 
2262.019934  	109.756519 
2263.451592  	109.739455 
2264.883250  	109.844637 
2266.314908  	110.013434 
2267.746566  	110.153343 
2269.178225  	110.027893 
2270.609883  	109.844674 
2272.041541  	109.832939 
2273.473199  	109.872990 
2274.904857  	110.045806 
2276.336516  	110.238494 
2277.768174  	110.244118 
2279.199832  	110.255638 
2280.631490  	110.245834 
2282.063148  	110.137696 
2283.494806  	110.178200 
2284.926465  	110.338445 
2286.358123  	110.357235 
2287.789781  	110.270762 
2289.221439  	110.309987 
2290.653097  	110.407445 
2292.084756  	110.349443 
2293.516414  	110.318458 
2294.948072  	110.397159 
2296.379730  	110.355735 
2297.811388  	110.341474 
2299.243047  	110.454594 
2300.674705  	110.427363 
2302.106363  	110.327878 
2303.538021  	110.351149 
2304.969679  	110.431113 
2306.401337  	110.475064 
2307.832996  	110.424552 
2309.264654  	110.366044 
2310.696312  	110.390124 
2312.127970  	110.409281 
2313.559628  	110.434257 
2314.991287  	110.472900 
2316.422945  	110.468820 
2317.854603  	110.485084 
2319.286261  	110.437341 
2320.717919  	110.282968 
2322.149577  	110.276527 
2323.581236  	110.424590 
2325.012894  	110.488710 
2326.444552  	110.415581 
2327.876210  	110.245562 
2329.307868  	110.113508 
2330.739527  	110.172324 
2332.171185  	110.290533 
2333.602843  	110.295386 
2335.034501  	110.268187 
2336.466159  	110.249714 
2337.897818  	110.197685 
2339.329476  	110.225825 
2340.761134  	110.295398 
2342.192792  	110.210136 
2343.624450  	110.170117 
2345.056108  	110.346579 
2346.487767  	110.449990 
2347.919425  	110.402480 
2349.351083  	110.361558 
2350.782741  	110.299621 
2352.214399  	110.236219 
2353.646058  	110.267642 
2355.077716  	110.269500 
2356.509374  	110.140954 
2357.941032  	110.059505 
2359.372690  	110.090428 
2360.804349  	110.099753 
2362.236007  	110.153919 
2363.667665  	110.295266 
2365.099323  	110.310463 
2366.530981  	110.260276 
2367.962639  	110.289423 
2369.394298  	110.271446 
2370.825956  	110.264624 
2372.257614  	110.312974 
2373.689272  	110.286180 
2375.120930  	110.267364 
2376.552589  	110.273978 
2377.984247  	110.237559 
2379.415905  	110.273410 
2380.847563  	110.366469 
2382.279221  	110.408847 
2383.710879  	110.438423 
2385.142538  	110.490111 
2386.574196  	110.561855 
2388.005854  	110.570884 
2389.437512  	110.460317 
2390.869170  	110.408163 
2392.300829  	110.458017 
2393.732487  	110.470439 
2395.164145  	110.515247 
2396.595803  	110.580454 
2398.027461  	110.517992 
2399.459120  	110.460834 
2400.890778  	110.509583 
2402.322436  	110.502600 
2403.754094  	110.429254 
2405.185752  	110.430168 
2406.617410  	110.486485 
2408.049069  	110.493045 
2409.480727  	110.454261 
2410.912385  	110.427493 
2412.344043  	110.408162 
2413.775701  	110.380942 
2415.207360  	110.363998 
2416.639018  	110.391732 
2418.070676  	110.490738 
2419.502334  	110.572780 
2420.933992  	110.526732 
2422.365651  	110.452871 
2423.797309  	110.453435 
2425.228967  	110.465158 
2426.660625  	110.510054 
2428.092283  	110.567608 
2429.523941  	110.469829 
2430.955600  	110.350608 
2432.387258  	110.437604 
2433.818916  	110.535461 
2435.250574  	110.489280 
2436.682232  	110.444433 
2438.113891  	110.449406 
2439.545549  	110.485248 
2440.977207  	110.542267 
2442.408865  	110.578214 
2443.840523  	110.628376 
2445.272181  	110.665413 
2446.703840  	110.612963 
2448.135498  	110.552566 
2449.567156  	110.579348 
2450.998814  	110.715383 
2452.430472  	110.850664 
2453.862131  	110.812576 
2455.293789  	110.739165 
2456.725447  	110.783615 
2458.157105  	110.768999 
2459.588763  	110.690081 
2461.020422  	110.723662 
2462.452080  	110.823889 
2463.883738  	110.885686 
2465.315396  	110.849104 
2466.747054  	110.727658 
2468.178712  	110.662768 
2469.610371  	110.675335 
2471.042029  	110.698156 
2472.473687  	110.754129 
2473.905345  	110.766249 
2475.337003  	110.668158 
2476.768662  	110.620583 
2478.200320  	110.645495 
2479.631978  	110.597900 
2481.063636  	110.582426 
2482.495294  	110.653440 
2483.926953  	110.618111 
2485.358611  	110.547953 
2486.790269  	110.601936 
2488.221927  	110.659622 
2489.653585  	110.690794 
2491.085243  	110.745232 
2492.516902  	110.755774 
2493.948560  	110.731738 
2495.380218  	110.681942 
2496.811876  	110.630585 
2498.243534  	110.698571 
2499.675193  	110.808532 
2501.106851  	110.793644 
2502.538509  	110.717429 
2503.970167  	110.704781 
2505.401825  	110.701430 
2506.833483  	110.644964 
2508.265142  	110.703787 
2509.696800  	110.852459 
2511.128458  	110.795943 
2512.560116  	110.690881 
2513.991774  	110.734829 
2515.423433  	110.696658 
2516.855091  	110.643633 
2518.286749  	110.708548 
2519.718407  	110.731610 
2521.150065  	110.760184 
2522.581724  	110.781848 
2524.013382  	110.708546 
2525.445040  	110.686182 
2526.876698  	110.714699 
2528.308356  	110.771672 
2529.740014  	110.827912 
2531.171673  	110.735187 
2532.603331  	110.687339 
2534.034989  	110.747005 
2535.466647  	110.716469 
2536.898305  	110.787719 
2538.329964  	110.909876 
2539.761622  	110.815772 
2541.193280  	110.724250 
2542.624938  	110.672528 
2544.056596  	110.563955 
2545.488254  	110.586872 
2546.919913  	110.682708 
2548.351571  	110.717750 
2549.783229  	110.718493 
2551.214887  	110.674673 
2552.646545  	110.683270 
2554.078204  	110.735122 
2555.509862  	110.699166 
2556.941520  	110.623939 
2558.373178  	110.554086 
2559.804836  	110.530537 
2561.236495  	110.570535 
2562.668153  	110.588520 
2564.099811  	110.621251 
2565.531469  	110.635431 
2566.963127  	110.560234 
2568.394785  	110.549369 
2569.826444  	110.589269 
2571.258102  	110.561942 
2572.689760  	110.513838 
2574.121418  	110.422858 
2575.553076  	110.349964 
2576.984735  	110.385065 
2578.416393  	110.408808 
2579.848051  	110.402102 
2581.279709  	110.382967 
2582.711367  	110.331406 
2584.143026  	110.404308 
2585.574684  	110.532854 
2587.006342  	110.474042 
2588.438000  	110.379952 
2589.869658  	110.428182 
2591.301316  	110.502553 
2592.732975  	110.541902 
2594.164633  	110.565328 
2595.596291  	110.586856 
2597.027949  	110.648860 
2598.459607  	110.723131 
2599.891266  	110.782874 
2601.322924  	110.855664 
2602.754582  	110.875647 
2604.186240  	110.791915 
2605.617898  	110.687630 
2607.049556  	110.600765 
2608.481215  	110.520480 
2609.912873  	110.485739 
2611.344531  	110.516563 
2612.776189  	110.587465 
2614.207847  	110.620996 
2615.639506  	110.592972 
2617.071164  	110.597457 
2618.502822  	110.615854 
2619.934480  	110.565083 
2621.366138  	110.524534 
2622.797797  	110.572631 
2624.229455  	110.676302 
2625.661113  	110.751002 
2627.092771  	110.751128 
2628.524429  	110.752788 
2629.956087  	110.754096 
2631.387746  	110.708400 
2632.819404  	110.731579 
2634.251062  	110.816618 
2635.682720  	110.833730 
2637.114378  	110.797465 
2638.546037  	110.730972 
2639.977695  	110.693521 
2641.409353  	110.738881 
2642.841011  	110.745442 
2644.272669  	110.697110 
2645.704328  	110.681705 
2647.135986  	110.676763 
2648.567644  	110.689881 
2649.999302  	110.703088 
2651.430960  	110.670032 
2652.862618  	110.660827 
2654.294277  	110.687238 
2655.725935  	110.684413 
2657.157593  	110.645930 
2658.589251  	110.592258 
2660.020909  	110.550976 
2661.452568  	110.512950 
2662.884226  	110.492627 
2664.315884  	110.531831 
2665.747542  	110.552962 
2667.179200  	110.518495 
2668.610858  	110.513072 
2670.042517  	110.546859 
2671.474175  	110.563712 
2672.905833  	110.509793 
2674.337491  	110.441015 
2675.769149  	110.466184 
2677.200808  	110.496960 
2678.632466  	110.491969 
2680.064124  	110.521234 
2681.495782  	110.491006 
2682.927440  	110.449001 
2684.359099  	110.518568 
2685.790757  	110.544109 
2687.222415  	110.502198 
2688.654073  	110.519751 
2690.085731  	110.533538 
2691.517389  	110.515465 
2692.949048  	110.507680 
2694.380706  	110.508125 
2695.812364  	110.518608 
2697.244022  	110.512144 
2698.675680  	110.507057 
2700.107339  	110.505652 
2701.538997  	110.454789 
2702.970655  	110.420702 
2704.402313  	110.424995 
2705.833971  	110.392572 
2707.265630  	110.344661 
2708.697288  	110.288033 
2710.128946  	110.210733 
2711.560604  	110.129193 
2712.992262  	110.028414 
2714.423920  	109.958801 
2715.855579  	109.934711 
2717.287237  	109.869175 
2718.718895  	109.751076 
2720.150553  	109.619764 
2721.582211  	109.545744 
2723.013870  	109.567392 
2724.445528  	109.591161 
2725.877186  	109.611581 
2727.308844  	109.699998 
2728.740502  	109.805823 
2730.172160  	109.886029 
2731.603819  	109.943864 
2733.035477  	109.981861 
2734.467135  	110.023726 
2735.898793  	110.084709 
2737.330451  	110.195924 
2738.762110  	110.299700 
2740.193768  	110.302105 
2741.625426  	110.310659 
2743.057084  	110.396707 
2744.488742  	110.466059 
2745.920401  	110.485290 
2747.352059  	110.458858 
2748.783717  	110.444504 
2750.215375  	110.491443 
2751.647033  	110.509573 
2753.078691  	110.497890 
2754.510350  	110.510350 
2755.942008  	110.489786 
2757.373666  	110.440483 
2758.805324  	110.400915 
2760.236982  	110.385626 
2761.668641  	110.405454 
2763.100299  	110.394636 
2764.531957  	110.365478 
2765.963615  	110.373317 
2767.395273  	110.343561 
2768.826931  	110.278153 
2770.258590  	110.241238 
2771.690248  	110.204506 
2773.121906  	110.175479 
2774.553564  	110.170527 
2775.985222  	110.159828 
2777.416881  	110.126761 
2778.848539  	110.058041 
2780.280197  	109.987688 
2781.711855  	109.933123 
2783.143513  	109.841637 
2784.575172  	109.747844 
2786.006830  	109.699034 
2787.438488  	109.610388 
2788.870146  	109.466846 
2790.301804  	109.354740 
2791.733462  	109.210985 
2793.165121  	108.992789 
2794.596779  	108.877941 
2796.028437  	108.863204 
2797.460095  	108.773545 
2798.891753  	108.693907 
2800.323412  	108.659243 
2801.755070  	108.511431 
2803.186728  	108.298813 
2804.618386  	108.078815 
2806.050044  	107.813246 
2807.481703  	107.587297 
2808.913361  	107.406916 
2810.345019  	107.218818 
2811.776677  	107.031474 
2813.208335  	106.811056 
2814.639993  	106.608798 
2816.071652  	106.420559 
2817.503310  	106.104522 
2818.934968  	105.729555 
2820.366626  	105.356450 
2821.798284  	104.867992 
2823.229943  	104.298320 
2824.661601  	103.674838 
2826.093259  	102.872488 
2827.524917  	101.778887 
2828.956575  	100.274466 
2830.388233  	98.327027 
2831.819892  	95.978706 
2833.251550  	93.258624 
2834.683208  	90.510482 
2836.114866  	88.401664 
2837.546524  	87.322813 
2838.978183  	87.333202 
2840.409841  	88.353988 
2841.841499  	90.029799 
2843.273157  	92.015000 
2844.704815  	94.050582 
2846.136474  	95.913505 
2847.568132  	97.590666 
2848.999790  	99.069513 
2850.431448  	100.189864 
2851.863106  	100.863504 
2853.294764  	101.212031 
2854.726423  	101.311657 
2856.158081  	101.034318 
2857.589739  	100.297285 
2859.021397  	99.035722 
2860.453055  	97.108854 
2861.884714  	94.548722 
2863.316372  	91.703306 
2864.748030  	89.192394 
2866.179688  	87.623787 
2867.611346  	87.118737 
2869.043005  	87.309627 
2870.474663  	87.794407 
2871.906321  	88.210116 
2873.337979  	88.382849 
2874.769637  	88.337954 
2876.201295  	88.104021 
2877.632954  	87.976872 
2879.064612  	88.254800 
2880.496270  	88.790812 
2881.927928  	89.379423 
2883.359586  	89.875860 
2884.791245  	90.196645 
2886.222903  	90.427012 
2887.654561  	90.530131 
2889.086219  	90.449099 
2890.517877  	90.247269 
2891.949535  	89.927036 
2893.381194  	89.471302 
2894.812852  	88.743523 
2896.244510  	87.676713 
2897.676168  	86.498220 
2899.107826  	85.235415 
2900.539485  	83.845639 
2901.971143  	82.487506 
2903.402801  	81.083930 
2904.834459  	79.678715 
2906.266117  	78.516223 
2907.697776  	77.472140 
2909.129434  	76.470213 
2910.561092  	75.476631 
2911.992750  	74.280140 
2913.424408  	72.937233 
2914.856066  	71.534382 
2916.287725  	70.302522 
2917.719383  	69.788613 
2919.151041  	70.089475 
2920.582699  	71.071499 
2922.014357  	72.598081 
2923.446016  	74.265581 
2924.877674  	75.936573 
2926.309332  	77.736331 
2927.740990  	79.753149 
2929.172648  	82.029729 
2930.604306  	84.384157 
2932.035965  	86.660519 
2933.467623  	88.770536 
2934.899281  	90.490103 
2936.330939  	91.735077 
2937.762597  	92.515807 
2939.194256  	92.663805 
2940.625914  	91.984436 
2942.057572  	90.389227 
2943.489230  	87.901040 
2944.920888  	84.758223 
2946.352547  	81.433250 
2947.784205  	78.605532 
2949.215863  	76.813156 
2950.647521  	76.202549 
2952.079179  	76.725727 
2953.510837  	78.011503 
2954.942496  	79.557120 
2956.374154  	80.941626 
2957.805812  	81.890033 
2959.237470  	82.605040 
2960.669128  	83.437445 
2962.100787  	84.600618 
2963.532445  	86.331466 
2964.964103  	88.556631 
2966.395761  	90.978871 
2967.827419  	93.422319 
2969.259078  	95.730835 
2970.690736  	97.837365 
2972.122394  	99.760884 
2973.554052  	101.481899 
2974.985710  	102.977572 
2976.417368  	104.258662 
2977.849027  	105.365803 
2979.280685  	106.326572 
2980.712343  	107.136031 
2982.144001  	107.788756 
2983.575659  	108.332124 
2985.007318  	108.825211 
2986.438976  	109.254252 
2987.870634  	109.629551 
2989.302292  	109.970388 
2990.733950  	110.218591 
2992.165608  	110.391733 
2993.597267  	110.563050 
2995.028925  	110.750124 
2996.460583  	110.937760 
2997.892241  	111.060156 
2999.323899  	111.144933 
3000.755558  	111.271007 
3002.187216  	111.362287 
3003.618874  	111.427764 
3005.050532  	111.534797 
3006.482190  	111.586496 
3007.913849  	111.602330 
3009.345507  	111.652344 
3010.777165  	111.668123 
3012.208823  	111.692242 
3013.640481  	111.783191 
3015.072139  	111.874711 
3016.503798  	111.928736 
3017.935456  	111.947195 
3019.367114  	112.005284 
3020.798772  	112.117104 
3022.230430  	112.148492 
3023.662089  	112.123717 
3025.093747  	112.150387 
3026.525405  	112.190537 
3027.957063  	112.209134 
3029.388721  	112.200249 
3030.820380  	112.185849 
3032.252038  	112.198034 
3033.683696  	112.191695 
3035.115354  	112.195784 
3036.547012  	112.245916 
3037.978670  	112.267610 
3039.410329  	112.273465 
3040.841987  	112.263135 
3042.273645  	112.204865 
3043.705303  	112.209154 
3045.136961  	112.258892 
3046.568620  	112.240191 
3048.000278  	112.249011 
3049.431936  	112.326984 
3050.863594  	112.369672 
3052.295252  	112.367735 
3053.726910  	112.335930 
3055.158569  	112.292548 
3056.590227  	112.295057 
3058.021885  	112.322904 
3059.453543  	112.323221 
3060.885201  	112.288093 
3062.316860  	112.238412 
3063.748518  	112.234824 
3065.180176  	112.269647 
3066.611834  	112.265394 
3068.043492  	112.265338 
3069.475151  	112.320842 
3070.906809  	112.343830 
3072.338467  	112.319282 
3073.770125  	112.347453 
3075.201783  	112.426184 
3076.633441  	112.454726 
3078.065100  	112.418915 
3079.496758  	112.422169 
3080.928416  	112.466212 
3082.360074  	112.431892 
3083.791732  	112.372298 
3085.223391  	112.385889 
3086.655049  	112.404131 
3088.086707  	112.424206 
3089.518365  	112.449410 
3090.950023  	112.405340 
3092.381682  	112.394736 
3093.813340  	112.462392 
3095.244998  	112.452256 
3096.676656  	112.387497 
3098.108314  	112.364576 
3099.539972  	112.361371 
3100.971631  	112.396800 
3102.403289  	112.442037 
3103.834947  	112.435693 
3105.266605  	112.446986 
3106.698263  	112.505494 
3108.129922  	112.511884 
3109.561580  	112.434798 
3110.993238  	112.387927 
3112.424896  	112.424375 
3113.856554  	112.457574 
3115.288212  	112.466762 
3116.719871  	112.490505 
3118.151529  	112.518498 
3119.583187  	112.526905 
3121.014845  	112.470400 
3122.446503  	112.408587 
3123.878162  	112.423698 
3125.309820  	112.389234 
3126.741478  	112.323625 
3128.173136  	112.383214 
3129.604794  	112.426833 
3131.036453  	112.390228 
3132.468111  	112.434671 
3133.899769  	112.509771 
3135.331427  	112.502237 
3136.763085  	112.431034 
3138.194743  	112.360683 
3139.626402  	112.376407 
3141.058060  	112.404746 
3142.489718  	112.345765 
3143.921376  	112.322699 
3145.353034  	112.394946 
3146.784693  	112.438118 
3148.216351  	112.414131 
3149.648009  	112.395060 
3151.079667  	112.380738 
3152.511325  	112.332695 
3153.942983  	112.324795 
3155.374642  	112.386483 
3156.806300  	112.439188 
3158.237958  	112.495025 
3159.669616  	112.526594 
3161.101274  	112.479028 
3162.532933  	112.467443 
3163.964591  	112.521066 
3165.396249  	112.543744 
3166.827907  	112.495217 
3168.259565  	112.381480 
3169.691224  	112.351412 
3171.122882  	112.440378 
3172.554540  	112.467300 
3173.986198  	112.504867 
3175.417856  	112.618564 
3176.849514  	112.615102 
3178.281173  	112.531253 
3179.712831  	112.493070 
3181.144489  	112.456762 
3182.576147  	112.438825 
3184.007805  	112.457853 
3185.439464  	112.476618 
3186.871122  	112.445956 
3188.302780  	112.361552 
3189.734438  	112.367563 
3191.166096  	112.468633 
3192.597755  	112.498594 
3194.029413  	112.471834 
3195.461071  	112.473693 
3196.892729  	112.548715 
3198.324387  	112.636032 
3199.756045  	112.553030 
3201.187704  	112.428367 
3202.619362  	112.469981 
3204.051020  	112.508132 
3205.482678  	112.464303 
3206.914336  	112.451805 
3208.345995  	112.453145 
3209.777653  	112.486470 
3211.209311  	112.553507 
3212.640969  	112.573136 
3214.072627  	112.587843 
3215.504285  	112.629425 
3216.935944  	112.631624 
3218.367602  	112.577377 
3219.799260  	112.529251 
3221.230918  	112.564452 
3222.662576  	112.636584 
3224.094235  	112.654282 
3225.525893  	112.655999 
3226.957551  	112.684440 
3228.389209  	112.701343 
3229.820867  	112.683630 
3231.252526  	112.668143 
3232.684184  	112.681671 
3234.115842  	112.678458 
3235.547500  	112.677873 
3236.979158  	112.728949 
3238.410816  	112.751652 
3239.842475  	112.758085 
3241.274133  	112.815157 
3242.705791  	112.813875 
3244.137449  	112.759082 
3245.569107  	112.767277 
3247.000766  	112.784230 
3248.432424  	112.782263 
3249.864082  	112.810681 
3251.295740  	112.844634 
3252.727398  	112.859542 
3254.159057  	112.843540 
3255.590715  	112.818484 
3257.022373  	112.823598 
3258.454031  	112.830448 
3259.885689  	112.847560 
3261.317347  	112.883248 
3262.749006  	112.854434 
3264.180664  	112.745998 
3265.612322  	112.663120 
3267.043980  	112.722889 
3268.475638  	112.857825 
3269.907297  	112.843362 
3271.338955  	112.752352 
3272.770613  	112.835959 
3274.202271  	112.971547 
3275.633929  	112.950612 
3277.065587  	112.875367 
3278.497246  	112.859590 
3279.928904  	112.861642 
3281.360562  	112.846578 
3282.792220  	112.839063 
3284.223878  	112.843228 
3285.655537  	112.831830 
3287.087195  	112.820850 
3288.518853  	112.821381 
3289.950511  	112.820193 
3291.382169  	112.827766 
3292.813828  	112.852838 
3294.245486  	112.918033 
3295.677144  	112.949382 
3297.108802  	112.852527 
3298.540460  	112.815544 
3299.972118  	112.904601 
3301.403777  	112.870231 
3302.835435  	112.792720 
3304.267093  	112.846709 
3305.698751  	112.883639 
3307.130409  	112.901348 
3308.562068  	112.965454 
3309.993726  	113.000159 
3311.425384  	113.041229 
3312.857042  	113.039709 
3314.288700  	112.930253 
3315.720359  	112.882554 
3317.152017  	112.929533 
3318.583675  	112.949792 
3320.015333  	112.923361 
3321.446991  	112.889422 
3322.878649  	112.930057 
3324.310308  	113.027332 
3325.741966  	113.071276 
3327.173624  	113.059934 
3328.605282  	113.018482 
3330.036940  	112.978733 
3331.468599  	112.946448 
3332.900257  	112.894313 
3334.331915  	112.911130 
3335.763573  	112.934591 
3337.195231  	112.839839 
3338.626889  	112.832278 
3340.058548  	112.939691 
3341.490206  	112.954843 
3342.921864  	112.928304 
3344.353522  	112.887831 
3345.785180  	112.845841 
3347.216839  	112.926328 
3348.648497  	112.971555 
3350.080155  	112.869818 
3351.511813  	112.847579 
3352.943471  	112.957701 
3354.375130  	113.031626 
3355.806788  	112.999459 
3357.238446  	112.920175 
3358.670104  	112.869352 
3360.101762  	112.872821 
3361.533420  	112.928479 
3362.965079  	112.950753 
3364.396737  	112.939015 
3365.828395  	113.025701 
3367.260053  	113.072049 
3368.691711  	112.954374 
3370.123370  	112.897717 
3371.555028  	112.963422 
3372.986686  	113.062431 
3374.418344  	113.131025 
3375.850002  	113.049980 
3377.281660  	112.975213 
3378.713319  	113.049426 
3380.144977  	113.080100 
3381.576635  	113.042857 
3383.008293  	112.998780 
3384.439951  	112.964356 
3385.871610  	113.056237 
3387.303268  	113.125724 
3388.734926  	113.061660 
3390.166584  	113.058953 
3391.598242  	113.039030 
3393.029901  	112.909958 
3394.461559  	112.875756 
3395.893217  	112.932322 
3397.324875  	112.954177 
3398.756533  	112.930561 
3400.188191  	112.891333 
3401.619850  	112.901344 
3403.051508  	112.898325 
3404.483166  	112.831672 
3405.914824  	112.865315 
3407.346482  	113.006815 
3408.778141  	113.058389 
3410.209799  	113.027574 
3411.641457  	113.063538 
3413.073115  	113.114242 
3414.504773  	113.082942 
3415.936432  	113.086591 
3417.368090  	113.133471 
3418.799748  	113.062479 
3420.231406  	112.963943 
3421.663064  	112.991505 
3423.094722  	113.026998 
3424.526381  	112.982259 
3425.958039  	112.979678 
3427.389697  	113.061069 
3428.821355  	113.048864 
3430.253013  	112.961518 
3431.684672  	113.013338 
3433.116330  	113.057939 
3434.547988  	112.998139 
3435.979646  	113.054875 
3437.411304  	113.097768 
3438.842962  	112.999822 
3440.274621  	112.960752 
3441.706279  	112.948006 
3443.137937  	112.966525 
3444.569595  	113.077944 
3446.001253  	113.099450 
3447.432912  	113.115545 
3448.864570  	113.194919 
3450.296228  	113.144270 
3451.727886  	113.121944 
3453.159544  	113.180317 
3454.591203  	113.109531 
3456.022861  	113.040055 
3457.454519  	113.039779 
3458.886177  	112.995951 
3460.317835  	113.024084 
3461.749493  	113.106764 
3463.181152  	113.108043 
3464.612810  	113.130272 
3466.044468  	113.207594 
3467.476126  	113.226584 
3468.907784  	113.203425 
3470.339443  	113.200231 
3471.771101  	113.163901 
3473.202759  	113.099137 
3474.634417  	113.112448 
3476.066075  	113.176150 
3477.497734  	113.185827 
3478.929392  	113.126898 
3480.361050  	113.025369 
3481.792708  	113.003243 
3483.224366  	113.108351 
3484.656024  	113.154226 
3486.087683  	113.129206 
3487.519341  	113.172726 
3488.950999  	113.232987 
3490.382657  	113.248458 
3491.814315  	113.261095 
3493.245974  	113.249861 
3494.677632  	113.210996 
3496.109290  	113.213033 
3497.540948  	113.235797 
3498.972606  	113.183115 
3500.404264  	113.112572 
3501.835923  	113.140011 
3503.267581  	113.203255 
3504.699239  	113.219769 
3506.130897  	113.245656 
3507.562555  	113.291619 
3508.994214  	113.302108 
3510.425872  	113.247604 
3511.857530  	113.189226 
3513.289188  	113.191193 
3514.720846  	113.220393 
3516.152505  	113.242368 
3517.584163  	113.248022 
3519.015821  	113.203056 
3520.447479  	113.116194 
3521.879137  	113.072299 
3523.310795  	113.167301 
3524.742454  	113.262051 
3526.174112  	113.142553 
3527.605770  	113.061144 
3529.037428  	113.188457 
3530.469086  	113.234159 
3531.900745  	113.205252 
3533.332403  	113.226511 
3534.764061  	113.201538 
3536.195719  	113.240999 
3537.627377  	113.326427 
3539.059035  	113.245205 
3540.490694  	113.206907 
3541.922352  	113.307348 
3543.354010  	113.287095 
3544.785668  	113.178910 
3546.217326  	113.204261 
3547.648985  	113.304333 
3549.080643  	113.337500 
3550.512301  	113.323587 
3551.943959  	113.277457 
3553.375617  	113.213869 
3554.807276  	113.244426 
3556.238934  	113.302779 
3557.670592  	113.263643 
3559.102250  	113.260529 
3560.533908  	113.336626 
3561.965566  	113.332598 
3563.397225  	113.253805 
3564.828883  	113.128491 
3566.260541  	113.067251 
3567.692199  	113.308517 
3569.123857  	113.478698 
3570.555516  	113.361334 
3571.987174  	113.269778 
3573.418832  	113.228839 
3574.850490  	113.196109 
3576.282148  	113.225808 
3577.713807  	113.289954 
3579.145465  	113.364145 
3580.577123  	113.405605 
3582.008781  	113.341267 
3583.440439  	113.221237 
3584.872097  	113.145454 
3586.303756  	113.189848 
3587.735414  	113.389638 
3589.167072  	113.541687 
3590.598730  	113.460176 
3592.030388  	113.296206 
3593.462047  	113.183589 
3594.893705  	113.149782 
3596.325363  	113.195591 
3597.757021  	113.323478 
3599.188679  	113.402242 
3600.620337  	113.436675 
3602.051996  	113.472552 
3603.483654  	113.382303 
3604.915312  	113.329142 
3606.346970  	113.398774 
3607.778628  	113.360392 
3609.210287  	113.409830 
3610.641945  	113.547549 
3612.073603  	113.345573 
3613.505261  	113.193411 
3614.936919  	113.389036 
3616.368578  	113.356541 
3617.800236  	113.178896 
3619.231894  	113.271490 
3620.663552  	113.481436 
3622.095210  	113.445507 
3623.526868  	113.308833 
3624.958527  	113.284240 
3626.390185  	113.235371 
3627.821843  	112.994322 
3629.253501  	113.064622 
3630.685159  	113.528530 
3632.116818  	113.444685 
3633.548476  	113.353260 
3634.980134  	113.420902 
3636.411792  	113.362417 
3637.843450  	113.339455 
3639.275109  	113.432052 
3640.706767  	113.386709 
3642.138425  	113.328756 
3643.570083  	113.410965 
3645.001741  	113.369743 
3646.433399  	113.172070 
3647.865058  	113.097061 
3649.296716  	113.168731 
3650.728374  	113.318727 
3652.160032  	113.581535 
3653.591690  	113.494744 
3655.023349  	113.280538 
3656.455007  	113.407926 
3657.886665  	113.601430 
3659.318323  	113.420963 
3660.749981  	113.322750 
3662.181639  	113.436928 
3663.613298  	113.517503 
3665.044956  	113.497980 
3666.476614  	113.408903 
3667.908272  	113.264207 
3669.339930  	113.165299 
3670.771589  	113.327773 
3672.203247  	113.379516 
3673.634905  	113.142894 
3675.066563  	113.156310 
3676.498221  	113.727115 
3677.929880  	113.607362 
3679.361538  	113.425406 
3680.793196  	113.458081 
3682.224854  	113.390045 
3683.656512  	113.357131 
3685.088170  	113.356813 
3686.519829  	113.149835 
3687.951487  	113.053495 
3689.383145  	113.398707 
3690.814803  	113.612552 
3692.246461  	113.623052 
3693.678120  	113.576290 
3695.109778  	113.454324 
3696.541436  	113.402801 
3697.973094  	113.365367 
3699.404752  	113.216170 
3700.836411  	113.163958 
3702.268069  	113.342716 
3703.699727  	113.464708 
3705.131385  	113.478820 
3706.563043  	113.484539 
3707.994701  	113.405386 
3709.426360  	113.293981 
3710.858018  	113.306539 
3712.289676  	113.481664 
3713.721334  	113.674124 
3715.152992  	113.639354 
3716.584651  	113.452412 
3718.016309  	113.348406 
3719.447967  	113.341915 
3720.879625  	113.241915 
3722.311283  	113.167579 
3723.742941  	113.335272 
3725.174600  	113.472113 
3726.606258  	113.451357 
3728.037916  	113.499421 
3729.469574  	113.472773 
3730.901232  	113.325427 
3732.332891  	113.364380 
3733.764549  	113.362318 
3735.196207  	113.180251 
3736.627865  	113.647795 
3738.059523  	113.930825 
3739.491182  	113.649457 
3740.922840  	113.577194 
3742.354498  	113.479948 
3743.786156  	113.274641 
3745.217814  	113.745385 
3746.649472  	113.696341 
3748.081131  	113.255804 
3749.512789  	113.326156 
3750.944447  	113.590963 
3752.376105  	113.607509 
3753.807763  	113.713553 
3755.239422  	113.555722 
3756.671080  	113.441414 
3758.102738  	113.568129 
3759.534396  	113.596847 
3760.966054  	113.582319 
3762.397712  	113.505693 
3763.829371  	113.339959 
3765.261029  	113.363062 
3766.692687  	113.462977 
3768.124345  	113.364537 
3769.556003  	113.367546 
3770.987662  	113.562147 
3772.419320  	113.587068 
3773.850978  	113.473630 
3775.282636  	113.478868 
3776.714294  	113.536715 
3778.145953  	113.404906 
3779.577611  	113.359273 
3781.009269  	113.546109 
3782.440927  	113.503788 
3783.872585  	113.400920 
3785.304243  	113.410079 
3786.735902  	113.397173 
3788.167560  	113.428283 
3789.599218  	113.412798 
3791.030876  	113.358493 
3792.462534  	113.493260 
3793.894193  	113.552977 
3795.325851  	113.434229 
3796.757509  	113.413456 
3798.189167  	113.337188 
3799.620825  	113.150793 
3801.052484  	113.186077 
3802.484142  	113.599004 
3803.915800  	113.603024 
3805.347458  	113.315127 
3806.779116  	113.366817 
3808.210774  	113.820873 
3809.642433  	113.656599 
3811.074091  	113.343514 
3812.505749  	113.348994 
3813.937407  	113.374262 
3815.369065  	113.397163 
3816.800724  	113.664109 
3818.232382  	113.524735 
3819.664040  	113.216005 
3821.095698  	113.431820 
3822.527356  	113.978721 
3823.959014  	113.731969 
3825.390673  	113.473333 
3826.822331  	113.575684 
3828.253989  	113.597522 
3829.685647  	113.380402 
3831.117305  	113.323376 
3832.548964  	113.421898 
3833.980622  	113.430497 
3835.412280  	113.376974 
3836.843938  	113.336672 
3838.275596  	113.440261 
3839.707255  	113.541089 
3841.138913  	113.419435 
3842.570571  	113.406347 
3844.002229  	113.592865 
3845.433887  	113.637639 
3846.865545  	113.466259 
3848.297204  	113.365046 
3849.728862  	113.398069 
3851.160520  	113.303184 
3852.592178  	113.168060 
3854.023836  	113.667723 
3855.455495  	113.910252 
3856.887153  	113.701101 
3858.318811  	113.665248 
3859.750469  	113.573005 
3861.182127  	113.433049 
3862.613786  	113.361217 
3864.045444  	113.214054 
3865.477102  	113.329463 
3866.908760  	113.564630 
3868.340418  	113.335161 
3869.772076  	113.225896 
3871.203735  	113.659376 
3872.635393  	113.608031 
3874.067051  	113.489691 
3875.498709  	113.623786 
3876.930367  	113.526055 
3878.362026  	113.336508 
3879.793684  	113.342940 
3881.225342  	113.532286 
3882.657000  	113.561366 
3884.088658  	113.379730 
3885.520316  	113.318312 
3886.951975  	113.567518 
3888.383633  	113.549916 
3889.815291  	113.352423 
3891.246949  	113.385317 
3892.678607  	113.659797 
3894.110266  	113.675786 
3895.541924  	113.500817 
3896.973582  	113.365969 
3898.405240  	113.288546 
3899.836898  	113.301611 
3901.268557  	113.456364 
3902.700215  	113.549830 
3904.131873  	113.595849 
3905.563531  	113.673659 
3906.995189  	113.626397 
3908.426847  	113.564751 
3909.858506  	113.589156 
3911.290164  	113.605877 
3912.721822  	113.623232 
3914.153480  	113.601177 
3915.585138  	113.481321 
3917.016797  	113.443424 
3918.448455  	113.517804 
3919.880113  	113.518925 
3921.311771  	113.511840 
3922.743429  	113.495510 
3924.175088  	113.448546 
3925.606746  	113.462533 
3927.038404  	113.464187 
3928.470062  	113.432820 
3929.901720  	113.437541 
3931.333378  	113.412236 
3932.765037  	113.448297 
3934.196695  	113.622482 
3935.628353  	113.673481 
3937.060011  	113.612302 
3938.491669  	113.595562 
3939.923328  	113.539000 
3941.354986  	113.435725 
3942.786644  	113.444402 
3944.218302  	113.524018 
3945.649960  	113.529542 
3947.081618  	113.523984 
3948.513277  	113.561318 
3949.944935  	113.599825 
3951.376593  	113.622133 
3952.808251  	113.623450 
3954.239909  	113.592845 
3955.671568  	113.559310 
3957.103226  	113.565253 
3958.534884  	113.617049 
3959.966542  	113.635506 
3961.398200  	113.590529 
3962.829859  	113.615870 
3964.261517  	113.683666 
3965.693175  	113.619458 
3967.124833  	113.545201 
3968.556491  	113.567513 
3969.988149  	113.529061 
3971.419808  	113.486157 
3972.851466  	113.550886 
3974.283124  	113.567061 
3975.714782  	113.526282 
3977.146440  	113.520020 
3978.578099  	113.496685 
3980.009757  	113.512508 
3981.441415  	113.574651 
3982.873073  	113.535438 
3984.304731  	113.474224 
3985.736389  	113.507854 
3987.168048  	113.484045 
3988.599706  	113.370121 
3990.031364  	113.377259 
3991.463022  	113.500880 
3992.894680  	113.526759 
3994.326339  	113.499828 
3995.757997  	113.554069 
3997.189655  	113.587431 
3998.621313  	113.539806 
4000.052971  	113.501941 