##TITLE=No Description
##DATA TYPE=INFRARED SPECTRUM
##XUNITS=1/CM
##YUNITS=%T
399.432634  	37.519226 
400.864292  	41.180611 
402.295950  	42.702396 
403.727608  	41.108296 
405.159267  	38.315134 
406.590925  	39.370792 
408.022583  	42.786383 
409.454241  	41.611770 
410.885899  	37.221943 
412.317558  	38.131145 
413.749216  	43.594795 
415.180874  	43.953960 
416.612532  	40.674203 
418.044190  	38.743638 
419.475848  	40.555897 
420.907507  	42.931123 
422.339165  	41.405057 
423.770823  	39.192168 
425.202481  	40.999425 
426.634139  	43.283371 
428.065798  	44.170818 
429.497456  	43.889227 
430.929114  	42.574909 
432.360772  	42.789304 
433.792430  	43.691374 
435.224089  	42.994485 
436.655747  	42.874623 
438.087405  	42.358609 
439.519063  	40.811756 
440.950721  	41.265757 
442.382379  	42.064737 
443.814038  	40.739572 
445.245696  	40.634015 
446.677354  	42.161270 
448.109012  	42.672980 
449.540670  	42.298539 
450.972329  	42.769741 
452.403987  	44.011007 
453.835645  	44.225309 
455.267303  	43.471588 
456.698961  	42.768844 
458.130619  	42.292418 
459.562278  	42.294780 
460.993936  	42.044179 
462.425594  	41.754423 
463.857252  	42.295729 
465.288910  	42.559610 
466.720569  	41.780377 
468.152227  	41.017537 
469.583885  	41.334349 
471.015543  	42.531174 
472.447201  	42.600866 
473.878860  	41.208213 
475.310518  	41.093351 
476.742176  	41.853210 
478.173834  	41.964649 
479.605492  	42.261598 
481.037150  	43.163529 
482.468809  	43.413008 
483.900467  	42.356033 
485.332125  	41.190184 
486.763783  	41.030940 
488.195441  	41.343239 
489.627100  	41.808962 
491.058758  	42.238492 
492.490416  	42.061839 
493.922074  	41.895698 
495.353732  	42.083908 
496.785391  	42.080643 
498.217049  	42.434193 
499.648707  	42.882664 
501.080365  	42.707718 
502.512023  	42.820789 
503.943681  	43.124336 
505.375340  	42.951016 
506.806998  	43.056843 
508.238656  	43.076514 
509.670314  	42.615630 
511.101972  	42.639514 
512.533631  	42.733702 
513.965289  	42.335682 
515.396947  	42.421138 
516.828605  	43.017390 
518.260263  	42.993429 
519.691921  	42.421162 
521.123580  	42.263931 
522.555238  	42.717432 
523.986896  	43.072570 
525.418554  	42.914800 
526.850212  	42.595633 
528.281871  	42.553095 
529.713529  	42.794197 
531.145187  	42.829012 
532.576845  	42.377469 
534.008503  	42.284972 
535.440162  	42.662809 
536.871820  	42.632192 
538.303478  	42.440887 
539.735136  	42.510416 
541.166794  	42.532252 
542.598452  	42.685390 
544.030111  	42.993172 
545.461769  	42.995895 
546.893427  	42.821341 
548.325085  	42.809803 
549.756743  	43.004686 
551.188402  	43.347502 
552.620060  	43.807580 
554.051718  	44.519296 
555.483376  	45.177594 
556.915034  	45.370789 
558.346692  	45.528422 
559.778351  	45.891715 
561.210009  	46.363284 
562.641667  	47.119033 
564.073325  	47.778251 
565.504983  	48.051163 
566.936642  	48.284090 
568.368300  	48.257262 
569.799958  	47.864448 
571.231616  	47.577078 
572.663274  	47.414430 
574.094933  	47.243853 
575.526591  	47.105297 
576.958249  	47.044104 
578.389907  	47.101049 
579.821565  	47.095227 
581.253223  	47.053549 
582.684882  	47.158259 
584.116540  	47.107187 
585.548198  	46.924028 
586.979856  	46.979692 
588.411514  	47.137081 
589.843173  	47.332686 
591.274831  	47.520687 
592.706489  	47.369331 
594.138147  	47.131514 
595.569805  	47.182712 
597.001464  	47.306966 
598.433122  	47.300564 
599.864780  	47.226356 
601.296438  	47.206080 
602.728096  	47.245019 
604.159754  	47.246481 
605.591413  	47.277666 
607.023071  	47.294647 
608.454729  	47.169483 
609.886387  	47.072662 
611.318045  	47.132036 
612.749704  	47.288227 
614.181362  	47.435245 
615.613020  	47.459279 
617.044678  	47.504440 
618.476336  	47.568874 
619.907994  	47.475697 
621.339653  	47.428734 
622.771311  	47.440306 
624.202969  	47.309780 
625.634627  	47.276352 
627.066285  	47.360709 
628.497944  	47.348724 
629.929602  	47.389094 
631.361260  	47.511464 
632.792918  	47.652444 
634.224576  	47.829072 
635.656235  	47.919109 
637.087893  	47.957673 
638.519551  	47.973131 
639.951209  	47.919371 
641.382867  	48.002714 
642.814525  	48.097654 
644.246184  	47.919232 
645.677842  	47.765004 
647.109500  	47.804461 
648.541158  	47.903703 
649.972816  	48.103626 
651.404475  	48.193597 
652.836133  	47.992627 
654.267791  	47.891398 
655.699449  	48.063372 
657.131107  	48.180572 
658.562766  	48.117647 
659.994424  	48.079194 
661.426082  	48.157291 
662.857740  	48.225229 
664.289398  	48.194930 
665.721056  	48.132885 
667.152715  	48.091758 
668.584373  	48.136404 
670.016031  	48.228854 
671.447689  	48.251095 
672.879347  	48.165133 
674.311006  	48.106643 
675.742664  	48.201540 
677.174322  	48.212948 
678.605980  	48.149171 
680.037638  	48.332149 
681.469296  	48.516463 
682.900955  	48.404431 
684.332613  	48.297211 
685.764271  	48.311535 
687.195929  	48.318464 
688.627587  	48.335517 
690.059246  	48.344670 
691.490904  	48.386201 
692.922562  	48.464915 
694.354220  	48.414244 
695.785878  	48.279788 
697.217537  	48.219479 
698.649195  	48.202545 
700.080853  	48.173729 
701.512511  	48.177806 
702.944169  	48.264957 
704.375827  	48.335605 
705.807486  	48.310058 
707.239144  	48.346463 
708.670802  	48.443202 
710.102460  	48.420235 
711.534118  	48.360486 
712.965777  	48.399020 
714.397435  	48.401836 
715.829093  	48.205819 
717.260751  	47.942327 
718.692409  	47.785269 
720.124067  	47.552207 
721.555726  	47.186739 
722.987384  	46.985689 
724.419042  	47.014814 
725.850700  	47.321614 
727.282358  	48.095178 
728.714017  	49.267196 
730.145675  	50.752970 
731.577333  	52.455880 
733.008991  	54.158996 
734.440649  	55.746476 
735.872308  	56.762788 
737.303966  	56.827496 
738.735624  	56.366825 
740.167282  	55.740123 
741.598940  	54.959049 
743.030598  	54.254190 
744.462257  	53.702882 
745.893915  	53.262085 
747.325573  	53.037803 
748.757231  	52.881317 
750.188889  	52.702289 
751.620548  	52.635689 
753.052206  	52.565818 
754.483864  	52.461232 
755.915522  	52.429329 
757.347180  	52.311182 
758.778839  	52.168533 
760.210497  	52.263219 
761.642155  	52.409020 
763.073813  	52.432805 
764.505471  	52.508053 
765.937129  	52.587465 
767.368788  	52.590824 
768.800446  	52.710055 
770.232104  	52.933214 
771.663762  	53.121075 
773.095420  	53.314572 
774.527079  	53.457965 
775.958737  	53.477645 
777.390395  	53.476364 
778.822053  	53.509496 
780.253711  	53.503705 
781.685369  	53.376131 
783.117028  	53.215145 
784.548686  	53.194815 
785.980344  	53.204701 
787.412002  	53.074283 
788.843660  	52.916244 
790.275319  	52.843534 
791.706977  	52.821323 
793.138635  	52.756023 
794.570293  	52.618584 
796.001951  	52.557023 
797.433610  	52.562231 
798.865268  	52.448233 
800.296926  	52.267506 
801.728584  	52.100118 
803.160242  	51.901375 
804.591900  	51.749625 
806.023559  	51.690851 
807.455217  	51.652104 
808.886875  	51.620523 
810.318533  	51.633997 
811.750191  	51.724079 
813.181850  	51.877346 
814.613508  	52.058199 
816.045166  	52.210553 
817.476824  	52.333038 
818.908482  	52.526442 
820.340141  	52.684974 
821.771799  	52.636672 
823.203457  	52.532449 
824.635115  	52.502350 
826.066773  	52.560087 
827.498431  	52.772526 
828.930090  	53.040731 
830.361748  	53.377560 
831.793406  	53.958596 
833.225064  	54.631599 
834.656722  	55.192340 
836.088381  	55.658447 
837.520039  	56.045340 
838.951697  	56.316746 
840.383355  	56.430078 
841.815013  	56.476020 
843.246671  	56.632007 
844.678330  	56.850017 
846.109988  	56.950412 
847.541646  	56.954074 
848.973304  	57.032363 
850.404962  	57.177611 
851.836621  	57.225358 
853.268279  	57.184134 
854.699937  	57.101336 
856.131595  	56.943863 
857.563253  	56.786075 
858.994912  	56.623711 
860.426570  	56.402310 
861.858228  	56.236462 
863.289886  	56.114917 
864.721544  	55.931367 
866.153202  	55.691645 
867.584861  	55.389329 
869.016519  	55.151842 
870.448177  	55.107739 
871.879835  	55.177481 
873.311493  	55.391487 
874.743152  	55.690392 
876.174810  	55.841993 
877.606468  	55.895522 
879.038126  	55.946964 
880.469784  	55.950637 
881.901443  	55.937767 
883.333101  	55.944944 
884.764759  	56.024648 
886.196417  	56.187732 
887.628075  	56.360938 
889.059733  	56.607814 
890.491392  	56.966379 
891.923050  	57.285264 
893.354708  	57.434260 
894.786366  	57.438902 
896.218024  	57.385784 
897.649683  	57.231327 
899.081341  	56.998693 
900.512999  	56.869038 
901.944657  	56.792360 
903.376315  	56.685422 
904.807973  	56.631357 
906.239632  	56.537481 
907.671290  	56.384394 
909.102948  	56.291016 
910.534606  	56.199218 
911.966264  	56.127188 
913.397923  	56.112261 
914.829581  	56.075493 
916.261239  	56.074381 
917.692897  	56.108404 
919.124555  	56.105004 
920.556214  	56.095418 
921.987872  	56.063645 
923.419530  	56.052459 
924.851188  	56.085973 
926.282846  	56.048839 
927.714504  	55.970738 
929.146163  	55.906800 
930.577821  	55.856248 
932.009479  	55.884264 
933.441137  	55.940049 
934.872795  	55.993484 
936.304454  	56.062793 
937.736112  	56.059168 
939.167770  	56.072366 
940.599428  	56.193929 
942.031086  	56.264222 
943.462744  	56.256588 
944.894403  	56.270169 
946.326061  	56.310552 
947.757719  	56.338326 
949.189377  	56.319329 
950.621035  	56.315663 
952.052694  	56.338626 
953.484352  	56.312747 
954.916010  	56.291343 
956.347668  	56.267564 
957.779326  	56.198476 
959.210985  	56.206345 
960.642643  	56.283390 
962.074301  	56.320075 
963.505959  	56.332963 
964.937617  	56.335902 
966.369275  	56.339810 
967.800934  	56.346912 
969.232592  	56.320128 
970.664250  	56.283910 
972.095908  	56.254037 
973.527566  	56.214702 
974.959225  	56.166477 
976.390883  	56.100972 
977.822541  	56.043666 
979.254199  	55.998867 
980.685857  	55.924048 
982.117516  	55.805925 
983.549174  	55.668166 
984.980832  	55.590011 
986.412490  	55.569020 
987.844148  	55.504925 
989.275806  	55.428968 
990.707465  	55.387043 
992.139123  	55.370814 
993.570781  	55.387723 
995.002439  	55.337626 
996.434097  	55.204380 
997.865756  	55.085099 
999.297414  	54.927267 
1000.729072  	54.735622 
1002.160730  	54.602222 
1003.592388  	54.522978 
1005.024046  	54.528231 
1006.455705  	54.602152 
1007.887363  	54.645786 
1009.319021  	54.573449 
1010.750679  	54.292986 
1012.182337  	53.998208 
1013.613996  	54.294313 
1015.045654  	55.626080 
1016.477312  	57.673196 
1017.908970  	59.618998 
1019.340628  	61.049646 
1020.772287  	61.832061 
1022.203945  	61.918105 
1023.635603  	61.653449 
1025.067261  	61.264297 
1026.498919  	60.710138 
1027.930577  	60.206174 
1029.362236  	59.864613 
1030.793894  	59.554904 
1032.225552  	59.331958 
1033.657210  	59.154768 
1035.088868  	58.902573 
1036.520527  	58.671900 
1037.952185  	58.505416 
1039.383843  	58.380549 
1040.815501  	58.282573 
1042.247159  	58.147207 
1043.678818  	57.990273 
1045.110476  	57.850192 
1046.542134  	57.741038 
1047.973792  	57.640129 
1049.405450  	57.496257 
1050.837108  	57.373207 
1052.268767  	57.259262 
1053.700425  	57.104460 
1055.132083  	57.001468 
1056.563741  	56.892865 
1057.995399  	56.763586 
1059.427058  	56.720694 
1060.858716  	56.634506 
1062.290374  	56.502866 
1063.722032  	56.400457 
1065.153690  	56.197715 
1066.585348  	55.997335 
1068.017007  	55.889774 
1069.448665  	55.732635 
1070.880323  	55.532505 
1072.311981  	55.316152 
1073.743639  	55.103728 
1075.175298  	54.875275 
1076.606956  	54.580690 
1078.038614  	54.524528 
1079.470272  	54.896183 
1080.901930  	55.536067 
1082.333589  	56.346415 
1083.765247  	57.034081 
1085.196905  	57.344514 
1086.628563  	57.324176 
1088.060221  	57.056178 
1089.491879  	56.722330 
1090.923538  	56.396743 
1092.355196  	56.024290 
1093.786854  	55.764939 
1095.218512  	55.627264 
1096.650170  	55.551066 
1098.081829  	55.637005 
1099.513487  	55.816659 
1100.945145  	56.162052 
1102.376803  	56.744612 
1103.808461  	57.319342 
1105.240120  	57.795794 
1106.671778  	58.120920 
1108.103436  	58.239113 
1109.535094  	58.276713 
1110.966752  	58.232625 
1112.398410  	58.130657 
1113.830069  	58.076739 
1115.261727  	58.043032 
1116.693385  	58.115986 
1118.125043  	58.316177 
1119.556701  	58.515356 
1120.988360  	58.690304 
1122.420018  	58.798465 
1123.851676  	58.895259 
1125.283334  	58.974963 
1126.714992  	58.878772 
1128.146650  	58.754863 
1129.578309  	58.653561 
1131.009967  	58.423283 
1132.441625  	58.225179 
1133.873283  	58.020533 
1135.304941  	57.659239 
1136.736600  	57.336382 
1138.168258  	57.030955 
1139.599916  	56.668976 
1141.031574  	56.368388 
1142.463232  	56.080174 
1143.894891  	55.811084 
1145.326549  	55.550967 
1146.758207  	55.219866 
1148.189865  	54.916379 
1149.621523  	54.620927 
1151.053181  	54.311715 
1152.484840  	54.042727 
1153.916498  	53.715346 
1155.348156  	53.419430 
1156.779814  	53.270702 
1158.211472  	53.272519 
1159.643131  	53.623498 
1161.074789  	54.375490 
1162.506447  	55.456429 
1163.938105  	56.812711 
1165.369763  	58.297752 
1166.801421  	59.779706 
1168.233080  	60.910753 
1169.664738  	61.354643 
1171.096396  	61.124758 
1172.528054  	60.360576 
1173.959712  	59.315573 
1175.391371  	58.327631 
1176.823029  	57.502981 
1178.254687  	56.862633 
1179.686345  	56.340862 
1181.118003  	55.773600 
1182.549662  	55.239748 
1183.981320  	54.780627 
1185.412978  	54.449503 
1186.844636  	54.440033 
1188.276294  	54.672334 
1189.707952  	55.181797 
1191.139611  	56.051408 
1192.571269  	57.036424 
1194.002927  	58.111211 
1195.434585  	59.313514 
1196.866243  	60.528053 
1198.297902  	61.749675 
1199.729560  	62.884228 
1201.161218  	63.786328 
1202.592876  	64.389388 
1204.024534  	64.572785 
1205.456193  	64.219930 
1206.887851  	63.349279 
1208.319509  	62.143457 
1209.751167  	60.919497 
1211.182825  	59.863331 
1212.614483  	59.025482 
1214.046142  	58.472684 
1215.477800  	58.146372 
1216.909458  	58.049576 
1218.341116  	58.159483 
1219.772774  	58.368453 
1221.204433  	58.730236 
1222.636091  	59.167532 
1224.067749  	59.586962 
1225.499407  	60.084514 
1226.931065  	60.619270 
1228.362723  	61.141410 
1229.794382  	61.666744 
1231.226040  	62.164527 
1232.657698  	62.649236 
1234.089356  	63.096010 
1235.521014  	63.501235 
1236.952673  	63.891081 
1238.384331  	64.222267 
1239.815989  	64.541491 
1241.247647  	64.868198 
1242.679305  	65.175487 
1244.110964  	65.588475 
1245.542622  	66.116424 
1246.974280  	66.672292 
1248.405938  	67.298095 
1249.837596  	67.989241 
1251.269254  	68.740327 
1252.700913  	69.558400 
1254.132571  	70.356304 
1255.564229  	71.068120 
1256.995887  	71.650186 
1258.427545  	72.043019 
1259.859204  	72.211297 
1261.290862  	72.181412 
1262.722520  	72.006727 
1264.154178  	71.785423 
1265.585836  	71.681229 
1267.017495  	71.766628 
1268.449153  	72.015661 
1269.880811  	72.418982 
1271.312469  	72.938916 
1272.744127  	73.514381 
1274.175785  	74.098772 
1275.607444  	74.654218 
1277.039102  	75.210595 
1278.470760  	75.722294 
1279.902418  	76.137238 
1281.334076  	76.578397 
1282.765735  	77.024574 
1284.197393  	77.365909 
1285.629051  	77.665626 
1287.060709  	77.963363 
1288.492367  	78.259962 
1289.924025  	78.538010 
1291.355684  	78.780006 
1292.787342  	79.034295 
1294.219000  	79.262106 
1295.650658  	79.451733 
1297.082316  	79.625987 
1298.513975  	79.717221 
1299.945633  	79.748472 
1301.377291  	79.682148 
1302.808949  	79.485260 
1304.240607  	79.292890 
1305.672266  	79.088944 
1307.103924  	78.879282 
1308.535582  	78.744188 
1309.967240  	78.618045 
1311.398898  	78.552701 
1312.830556  	78.570699 
1314.262215  	78.549905 
1315.693873  	78.503329 
1317.125531  	78.363560 
1318.557189  	78.128300 
1319.988847  	77.961650 
1321.420506  	77.786613 
1322.852164  	77.594632 
1324.283822  	77.464519 
1325.715480  	77.337148 
1327.147138  	77.265928 
1328.578796  	77.209033 
1330.010455  	77.055523 
1331.442113  	76.924471 
1332.873771  	76.821576 
1334.305429  	76.670328 
1335.737087  	76.479207 
1337.168746  	76.239836 
1338.600404  	76.038574 
1340.032062  	75.886968 
1341.463720  	75.715368 
1342.895378  	75.561839 
1344.327037  	75.402460 
1345.758695  	75.253102 
1347.190353  	75.112416 
1348.622011  	74.910675 
1350.053669  	74.756537 
1351.485327  	74.653940 
1352.916986  	74.495135 
1354.348644  	74.338110 
1355.780302  	74.129341 
1357.211960  	73.847459 
1358.643618  	73.571089 
1360.075277  	73.222210 
1361.506935  	72.894336 
1362.938593  	72.856272 
1364.370251  	73.107301 
1365.801909  	73.463237 
1367.233568  	73.845707 
1368.665226  	74.080930 
1370.096884  	74.114324 
1371.528542  	73.984017 
1372.960200  	73.771529 
1374.391858  	73.637671 
1375.823517  	73.501693 
1377.255175  	73.291382 
1378.686833  	73.096400 
1380.118491  	72.933063 
1381.550149  	72.766316 
1382.981808  	72.576528 
1384.413466  	72.450890 
1385.845124  	72.486815 
1387.276782  	72.722970 
1388.708440  	73.002285 
1390.140098  	73.170751 
1391.571757  	73.208860 
1393.003415  	73.149431 
1394.435073  	73.099248 
1395.866731  	73.012872 
1397.298389  	72.841139 
1398.730048  	72.649265 
1400.161706  	72.454974 
1401.593364  	72.207049 
1403.025022  	71.908165 
1404.456680  	71.659452 
1405.888339  	71.489019 
1407.319997  	71.470190 
1408.751655  	71.794444 
1410.183313  	72.438762 
1411.614971  	73.223976 
1413.046629  	73.874765 
1414.478288  	74.259138 
1415.909946  	74.444405 
1417.341604  	74.441786 
1418.773262  	74.309444 
1420.204920  	74.221240 
1421.636579  	74.076258 
1423.068237  	73.905286 
1424.499895  	73.813436 
1425.931553  	73.658447 
1427.363211  	73.449955 
1428.794870  	73.275315 
1430.226528  	73.116138 
1431.658186  	73.019294 
1433.089844  	72.912603 
1434.521502  	72.735853 
1435.953160  	72.643295 
1437.384819  	72.641140 
1438.816477  	72.518389 
1440.248135  	72.391739 
1441.679793  	72.272802 
1443.111451  	72.171916 
1444.543110  	72.109535 
1445.974768  	72.022182 
1447.406426  	71.934564 
1448.838084  	71.889717 
1450.269742  	71.853300 
1451.701400  	71.877813 
1453.133059  	71.923982 
1454.564717  	71.859792 
1455.996375  	71.756371 
1457.428033  	71.692935 
1458.859691  	71.646272 
1460.291350  	71.640566 
1461.723008  	71.661598 
1463.154666  	71.670198 
1464.586324  	71.713545 
1466.017982  	71.790198 
1467.449641  	71.828981 
1468.881299  	71.855496 
1470.312957  	71.864390 
1471.744615  	71.880910 
1473.176273  	71.939640 
1474.607931  	71.917060 
1476.039590  	71.865584 
1477.471248  	71.843111 
1478.902906  	71.739307 
1480.334564  	71.554097 
1481.766222  	71.399262 
1483.197881  	71.208723 
1484.629539  	70.907341 
1486.061197  	70.603867 
1487.492855  	70.273378 
1488.924513  	69.920978 
1490.356172  	69.646049 
1491.787830  	69.277281 
1493.219488  	68.943817 
1494.651146  	68.690671 
1496.082804  	68.339545 
1497.514462  	68.020423 
1498.946121  	67.828643 
1500.377779  	67.766014 
1501.809437  	68.087574 
1503.241095  	68.584441 
1504.672753  	69.147231 
1506.104412  	70.280585 
1507.536070  	72.358287 
1508.967728  	73.754377 
1510.399386  	74.982319 
1511.831044  	76.119242 
1513.262702  	76.849936 
1514.694361  	77.191075 
1516.126019  	77.254722 
1517.557677  	77.205477 
1518.989335  	77.064339 
1520.420993  	76.771739 
1521.852652  	76.596881 
1523.284310  	76.437670 
1524.715968  	76.184447 
1526.147626  	76.095394 
1527.579284  	75.989353 
1529.010943  	75.819659 
1530.442601  	75.691708 
1531.874259  	75.484384 
1533.305917  	75.359679 
1534.737575  	75.379170 
1536.169233  	75.225995 
1537.600892  	75.099714 
1539.032550  	75.042362 
1540.464208  	74.988113 
1541.895866  	75.000053 
1543.327524  	74.888203 
1544.759183  	74.830623 
1546.190841  	74.854540 
1547.622499  	74.731081 
1549.054157  	74.631086 
1550.485815  	74.602232 
1551.917473  	74.487323 
1553.349132  	74.419447 
1554.780790  	74.412078 
1556.212448  	74.289650 
1557.644106  	74.138252 
1559.075764  	74.224385 
1560.507423  	74.418831 
1561.939081  	74.273392 
1563.370739  	74.167025 
1564.802397  	74.167107 
1566.234055  	74.114538 
1567.665714  	73.985800 
1569.097372  	73.940412 
1570.529030  	73.943592 
1571.960688  	73.870678 
1573.392346  	73.786043 
1574.824004  	73.720819 
1576.255663  	73.755765 
1577.687321  	73.797949 
1579.118979  	73.772850 
1580.550637  	73.805781 
1581.982295  	73.817032 
1583.413954  	73.740826 
1584.845612  	73.685156 
1586.277270  	73.640176 
1587.708928  	73.587924 
1589.140586  	73.564836 
1590.572245  	73.548559 
1592.003903  	73.552865 
1593.435561  	73.599506 
1594.867219  	73.654335 
1596.298877  	73.703248 
1597.730535  	73.724895 
1599.162194  	73.728885 
1600.593852  	73.739584 
1602.025510  	73.748466 
1603.457168  	73.801267 
1604.888826  	73.883736 
1606.320485  	73.934636 
1607.752143  	74.009077 
1609.183801  	74.089897 
1610.615459  	74.133116 
1612.047117  	74.153785 
1613.478775  	74.082259 
1614.910434  	73.985188 
1616.342092  	74.002039 
1617.773750  	74.073021 
1619.205408  	74.030976 
1620.637066  	73.934383 
1622.068725  	73.850964 
1623.500383  	73.890718 
1624.932041  	73.910784 
1626.363699  	73.834085 
1627.795357  	73.808057 
1629.227016  	73.788632 
1630.658674  	73.715116 
1632.090332  	73.655146 
1633.521990  	73.562871 
1634.953648  	73.451769 
1636.385306  	73.502637 
1637.816965  	73.511960 
1639.248623  	73.465443 
1640.680281  	73.497444 
1642.111939  	73.481339 
1643.543597  	73.361090 
1644.975256  	73.237471 
1646.406914  	73.195706 
1647.838572  	73.278900 
1649.270230  	73.232994 
1650.701888  	73.099981 
1652.133547  	73.045952 
1653.565205  	73.254917 
1654.996863  	73.233694 
1656.428521  	73.132898 
1657.860179  	73.060491 
1659.291837  	73.032179 
1660.723496  	73.006579 
1662.155154  	72.936217 
1663.586812  	72.913956 
1665.018470  	72.884066 
1666.450128  	72.788605 
1667.881787  	72.690283 
1669.313445  	72.623226 
1670.745103  	72.657843 
1672.176761  	72.621794 
1673.608419  	72.465380 
1675.040077  	72.467648 
1676.471736  	72.523856 
1677.903394  	72.333350 
1679.335052  	72.228578 
1680.766710  	72.158433 
1682.198368  	71.962738 
1683.630027  	71.902563 
1685.061685  	72.015526 
1686.493343  	71.836762 
1687.925001  	71.688822 
1689.356659  	71.563199 
1690.788318  	71.453109 
1692.219976  	71.250879 
1693.651634  	70.944432 
1695.083292  	70.757190 
1696.514950  	70.623016 
1697.946608  	70.287622 
1699.378267  	70.007839 
1700.809925  	69.635900 
1702.241583  	69.282199 
1703.673241  	68.987213 
1705.104899  	68.581079 
1706.536558  	68.218458 
1707.968216  	67.912751 
1709.399874  	67.652054 
1710.831532  	67.652609 
1712.263190  	67.735326 
1713.694849  	67.919367 
1715.126507  	68.362111 
1716.558165  	68.792148 
1717.989823  	69.595930 
1719.421481  	70.653704 
1720.853139  	71.261987 
1722.284798  	72.055249 
1723.716456  	73.015709 
1725.148114  	73.717768 
1726.579772  	74.493932 
1728.011430  	75.165871 
1729.443089  	75.655221 
1730.874747  	76.304774 
1732.306405  	76.570194 
1733.738063  	76.710134 
1735.169721  	77.225312 
1736.601379  	76.958129 
1738.033038  	76.693483 
1739.464696  	76.532352 
1740.896354  	76.077895 
1742.328012  	75.747864 
1743.759670  	75.450905 
1745.191329  	75.029597 
1746.622987  	74.708156 
1748.054645  	74.321446 
1749.486303  	73.891188 
1750.917961  	73.536281 
1752.349620  	73.081365 
1753.781278  	72.693004 
1755.212936  	72.331249 
1756.644594  	71.850480 
1758.076252  	71.310383 
1759.507910  	70.782892 
1760.939569  	70.311796 
1762.371227  	69.869978 
1763.802885  	69.514355 
1765.234543  	69.425736 
1766.666201  	69.426894 
1768.097860  	69.564558 
1769.529518  	69.959952 
1770.961176  	70.317972 
1772.392834  	71.026800 
1773.824492  	71.951167 
1775.256150  	72.512407 
1776.687809  	73.360875 
1778.119467  	74.248510 
1779.551125  	74.931062 
1780.982783  	75.934624 
1782.414441  	76.779103 
1783.846100  	77.474438 
1785.277758  	78.371135 
1786.709416  	78.941526 
1788.141074  	79.553855 
1789.572732  	80.228147 
1791.004391  	80.578335 
1792.436049  	81.211799 
1793.867707  	81.621236 
1795.299365  	81.602201 
1796.731023  	81.823232 
1798.162681  	81.812915 
1799.594340  	81.673301 
1801.025998  	81.739826 
1802.457656  	81.553828 
1803.889314  	81.385402 
1805.320972  	81.261850 
1806.752631  	81.018893 
1808.184289  	80.940372 
1809.615947  	80.811829 
1811.047605  	80.589588 
1812.479263  	80.500923 
1813.910922  	80.338588 
1815.342580  	80.263553 
1816.774238  	80.276799 
1818.205896  	80.106950 
1819.637554  	80.003466 
1821.069212  	79.946694 
1822.500871  	79.821665 
1823.932529  	79.758311 
1825.364187  	79.628597 
1826.795845  	79.514366 
1828.227503  	79.461899 
1829.659162  	79.375136 
1831.090820  	79.402538 
1832.522478  	79.355505 
1833.954136  	79.271921 
1835.385794  	79.309613 
1836.817452  	79.239223 
1838.249111  	79.186643 
1839.680769  	79.200401 
1841.112427  	79.013936 
1842.544085  	78.932191 
1843.975743  	79.094706 
1845.407402  	79.078613 
1846.839060  	78.974165 
1848.270718  	78.965514 
1849.702376  	78.994695 
1851.134034  	78.889733 
1852.565693  	78.722620 
1853.997351  	78.789195 
1855.429009  	78.826628 
1856.860667  	78.684627 
1858.292325  	78.649688 
1859.723983  	78.624851 
1861.155642  	78.652296 
1862.587300  	78.725400 
1864.018958  	78.581675 
1865.450616  	78.477664 
1866.882274  	78.431053 
1868.313933  	78.381014 
1869.745591  	78.658258 
1871.177249  	78.691575 
1872.608907  	78.490009 
1874.040565  	78.569318 
1875.472224  	78.612855 
1876.903882  	78.531862 
1878.335540  	78.556345 
1879.767198  	78.572245 
1881.198856  	78.624459 
1882.630514  	78.566036 
1884.062173  	78.436822 
1885.493831  	78.482044 
1886.925489  	78.386195 
1888.357147  	78.305283 
1889.788805  	78.481312 
1891.220464  	78.414325 
1892.652122  	78.307325 
1894.083780  	78.375774 
1895.515438  	78.369913 
1896.947096  	78.403572 
1898.378754  	78.461023 
1899.810413  	78.520250 
1901.242071  	78.622470 
1902.673729  	78.560473 
1904.105387  	78.503856 
1905.537045  	78.512217 
1906.968704  	78.500345 
1908.400362  	78.599473 
1909.832020  	78.568625 
1911.263678  	78.583276 
1912.695336  	78.833716 
1914.126995  	78.765238 
1915.558653  	78.660223 
1916.990311  	78.824064 
1918.421969  	78.778083 
1919.853627  	78.720311 
1921.285285  	78.719177 
1922.716944  	78.659335 
1924.148602  	78.750054 
1925.580260  	78.625430 
1927.011918  	78.524281 
1928.443576  	78.808232 
1929.875235  	78.886829 
1931.306893  	78.825992 
1932.738551  	78.842026 
1934.170209  	78.796225 
1935.601867  	79.006477 
1937.033525  	79.160450 
1938.465184  	78.964000 
1939.896842  	78.805324 
1941.328500  	78.739987 
1942.760158  	78.982698 
1944.191816  	79.295668 
1945.623475  	79.212699 
1947.055133  	79.203286 
1948.486791  	79.200990 
1949.918449  	79.163590 
1951.350107  	79.401178 
1952.781766  	79.481921 
1954.213424  	79.430952 
1955.645082  	79.399290 
1957.076740  	79.361243 
1958.508398  	79.750443 
1959.940056  	79.922712 
1961.371715  	79.604474 
1962.803373  	79.628560 
1964.235031  	79.565710 
1965.666689  	79.502125 
1967.098347  	79.816219 
1968.530006  	80.025760 
1969.961664  	80.343827 
1971.393322  	80.293725 
1972.824980  	79.927129 
1974.256638  	80.302886 
1975.688297  	80.362106 
1977.119955  	79.981438 
1978.551613  	80.110117 
1979.983271  	80.002848 
1981.414929  	79.921713 
1982.846587  	80.031866 
1984.278246  	79.899141 
1985.709904  	79.915664 
1987.141562  	79.947154 
1988.573220  	79.972429 
1990.004878  	80.009514 
1991.436537  	79.698296 
1992.868195  	79.694179 
1994.299853  	79.812951 
1995.731511  	79.662666 
1997.163169  	79.942129 
1998.594827  	80.073324 
2000.026486  	79.903030 
2001.458144  	80.016678 
2002.889802  	79.798864 
2004.321460  	79.795544 
2005.753118  	80.323073 
2007.184777  	80.305222 
2008.616435  	80.329718 
2010.048093  	80.493585 
2011.479751  	80.427884 
2012.911409  	80.601313 
2014.343068  	80.349067 
2015.774726  	79.979524 
2017.206384  	80.197837 
2018.638042  	80.360166 
2020.069700  	80.656192 
2021.501358  	80.712624 
2022.933017  	80.242625 
2024.364675  	80.237030 
2025.796333  	80.125114 
2027.227991  	79.945405 
2028.659649  	80.329725 
2030.091308  	80.362668 
2031.522966  	80.133712 
2032.954624  	79.875365 
2034.386282  	79.674122 
2035.817940  	80.045518 
2037.249599  	79.925521 
2038.681257  	79.485060 
2040.112915  	79.816441 
2041.544573  	79.912240 
2042.976231  	79.671612 
2044.407889  	79.787324 
2045.839548  	79.831601 
2047.271206  	79.820062 
2048.702864  	79.747127 
2050.134522  	79.585567 
2051.566180  	79.474902 
2052.997839  	79.252856 
2054.429497  	79.188381 
2055.861155  	79.264442 
2057.292813  	79.333115 
2058.724471  	79.583566 
2060.156129  	79.483171 
2061.587788  	79.234232 
2063.019446  	79.534979 
2064.451104  	79.657669 
2065.882762  	79.498505 
2067.314420  	79.558635 
2068.746079  	79.473971 
2070.177737  	79.288148 
2071.609395  	79.062067 
2073.041053  	78.932389 
2074.472711  	79.150557 
2075.904370  	79.155512 
2077.336028  	79.103927 
2078.767686  	79.454710 
2080.199344  	79.563023 
2081.631002  	79.388727 
2083.062660  	79.237302 
2084.494319  	79.073894 
2085.925977  	79.111354 
2087.357635  	79.146051 
2088.789293  	79.126906 
2090.220951  	79.230591 
2091.652610  	79.141955 
2093.084268  	79.135785 
2094.515926  	79.336764 
2095.947584  	79.285150 
2097.379242  	79.332393 
2098.810901  	79.477703 
2100.242559  	79.320108 
2101.674217  	79.183660 
2103.105875  	79.166181 
2104.537533  	79.283960 
2105.969191  	79.434836 
2107.400850  	79.265146 
2108.832508  	79.138195 
2110.264166  	79.185256 
2111.695824  	79.138134 
2113.127482  	79.161789 
2114.559141  	79.190191 
2115.990799  	79.208316 
2117.422457  	79.247286 
2118.854115  	79.122071 
2120.285773  	79.172635 
2121.717431  	79.326987 
2123.149090  	79.217219 
2124.580748  	79.259617 
2126.012406  	79.314653 
2127.444064  	79.143506 
2128.875722  	79.235746 
2130.307381  	79.422237 
2131.739039  	79.439947 
2133.170697  	79.472609 
2134.602355  	79.576686 
2136.034013  	79.895768 
2137.465672  	79.958981 
2138.897330  	79.582368 
2140.328988  	79.513681 
2141.760646  	79.642894 
2143.192304  	79.610726 
2144.623962  	79.452084 
2146.055621  	79.438358 
2147.487279  	80.075827 
2148.918937  	80.413805 
2150.350595  	79.936808 
2151.782253  	79.923469 
2153.213912  	80.196510 
2154.645570  	80.495950 
2156.077228  	81.095265 
2157.508886  	81.154210 
2158.940544  	81.070835 
2160.372202  	80.822976 
2161.803861  	80.217847 
2163.235519  	80.572546 
2164.667177  	80.851727 
2166.098835  	80.272679 
2167.530493  	80.114541 
2168.962152  	80.309537 
2170.393810  	80.673688 
2171.825468  	80.951771 
2173.257126  	80.599093 
2174.688784  	80.395347 
2176.120443  	80.375458 
2177.552101  	80.291242 
2178.983759  	80.615955 
2180.415417  	80.662892 
2181.847075  	80.294810 
2183.278733  	80.081562 
2184.710392  	79.905983 
2186.142050  	80.028934 
2187.573708  	80.143732 
2189.005366  	79.916216 
2190.437024  	79.906558 
2191.868683  	79.878688 
2193.300341  	79.826614 
2194.731999  	80.054599 
2196.163657  	79.994135 
2197.595315  	79.828966 
2199.026974  	79.938904 
2200.458632  	80.021010 
2201.890290  	80.150978 
2203.321948  	80.217566 
2204.753606  	80.085483 
2206.185264  	79.945433 
2207.616923  	79.801718 
2209.048581  	79.840281 
2210.480239  	79.958521 
2211.911897  	79.974048 
2213.343555  	80.119153 
2214.775214  	80.145477 
2216.206872  	80.006575 
2217.638530  	79.979594 
2219.070188  	79.877282 
2220.501846  	79.819329 
2221.933504  	79.867730 
2223.365163  	79.911073 
2224.796821  	80.099258 
2226.228479  	80.086135 
2227.660137  	79.920891 
2229.091795  	80.031015 
2230.523454  	79.985235 
2231.955112  	79.804534 
2233.386770  	79.854190 
2234.818428  	79.882465 
2236.250086  	79.893069 
2237.681745  	79.903940 
2239.113403  	79.844362 
2240.545061  	79.823143 
2241.976719  	79.734572 
2243.408377  	79.740317 
2244.840035  	79.895642 
2246.271694  	79.908062 
2247.703352  	79.875435 
2249.135010  	79.783882 
2250.566668  	79.728732 
2251.998326  	79.917652 
2253.429985  	79.882308 
2254.861643  	79.688328 
2256.293301  	79.760288 
2257.724959  	79.714601 
2259.156617  	79.587391 
2260.588276  	79.686196 
2262.019934  	79.782637 
2263.451592  	79.796271 
2264.883250  	79.780228 
2266.314908  	79.812176 
2267.746566  	79.872786 
2269.178225  	79.806924 
2270.609883  	79.753183 
2272.041541  	79.664892 
2273.473199  	79.562358 
2274.904857  	79.753923 
2276.336516  	79.913217 
2277.768174  	79.866131 
2279.199832  	79.878811 
2280.631490  	79.765296 
2282.063148  	79.637053 
2283.494806  	79.686813 
2284.926465  	79.674535 
2286.358123  	79.641672 
2287.789781  	79.592926 
2289.221439  	79.563934 
2290.653097  	79.707585 
2292.084756  	79.697314 
2293.516414  	79.572955 
2294.948072  	79.650015 
2296.379730  	79.642062 
2297.811388  	79.583854 
2299.243047  	79.677207 
2300.674705  	79.631683 
2302.106363  	79.465752 
2303.538021  	79.385172 
2304.969679  	79.384115 
2306.401337  	79.405764 
2307.832996  	79.308887 
2309.264654  	79.217011 
2310.696312  	79.257581 
2312.127970  	79.213966 
2313.559628  	79.139223 
2314.991287  	79.171216 
2316.422945  	79.200359 
2317.854603  	79.167031 
2319.286261  	79.011528 
2320.717919  	78.839628 
2322.149577  	78.802094 
2323.581236  	78.808138 
2325.012894  	78.852143 
2326.444552  	78.857248 
2327.876210  	78.724542 
2329.307868  	78.650917 
2330.739527  	78.682821 
2332.171185  	78.702171 
2333.602843  	78.749006 
2335.034501  	78.777136 
2336.466159  	78.735082 
2337.897818  	78.642743 
2339.329476  	78.566534 
2340.761134  	78.570340 
2342.192792  	78.525444 
2343.624450  	78.484041 
2345.056108  	78.620296 
2346.487767  	78.843463 
2347.919425  	79.071432 
2349.351083  	79.143138 
2350.782741  	78.921988 
2352.214399  	78.658469 
2353.646058  	78.553187 
2355.077716  	78.391622 
2356.509374  	78.236277 
2357.941032  	78.202035 
2359.372690  	78.254356 
2360.804349  	78.330339 
2362.236007  	78.269280 
2363.667665  	78.302554 
2365.099323  	78.521597 
2366.530981  	78.610990 
2367.962639  	78.648573 
2369.394298  	78.753630 
2370.825956  	78.875317 
2372.257614  	79.006707 
2373.689272  	79.089390 
2375.120930  	79.205157 
2376.552589  	79.350962 
2377.984247  	79.442456 
2379.415905  	79.577424 
2380.847563  	79.707929 
2382.279221  	79.812258 
2383.710879  	79.969205 
2385.142538  	80.024146 
2386.574196  	79.998522 
2388.005854  	80.038354 
2389.437512  	80.024836 
2390.869170  	80.010699 
2392.300829  	80.115795 
2393.732487  	80.187456 
2395.164145  	80.184946 
2396.595803  	80.194566 
2398.027461  	80.233814 
2399.459120  	80.279181 
2400.890778  	80.267532 
2402.322436  	80.194961 
2403.754094  	80.096088 
2405.185752  	80.058297 
2406.617410  	80.145755 
2408.049069  	80.185867 
2409.480727  	80.131546 
2410.912385  	80.157961 
2412.344043  	80.222868 
2413.775701  	80.236940 
2415.207360  	80.229522 
2416.639018  	80.232378 
2418.070676  	80.295752 
2419.502334  	80.337304 
2420.933992  	80.288475 
2422.365651  	80.274411 
2423.797309  	80.302629 
2425.228967  	80.294768 
2426.660625  	80.302462 
2428.092283  	80.378243 
2429.523941  	80.422134 
2430.955600  	80.309637 
2432.387258  	80.221656 
2433.818916  	80.343779 
2435.250574  	80.455082 
2436.682232  	80.434806 
2438.113891  	80.428510 
2439.545549  	80.454634 
2440.977207  	80.479468 
2442.408865  	80.471862 
2443.840523  	80.427462 
2445.272181  	80.427797 
2446.703840  	80.444159 
2448.135498  	80.434249 
2449.567156  	80.455260 
2450.998814  	80.493309 
2452.430472  	80.521553 
2453.862131  	80.556389 
2455.293789  	80.592791 
2456.725447  	80.600252 
2458.157105  	80.553659 
2459.588763  	80.508398 
2461.020422  	80.518402 
2462.452080  	80.567691 
2463.883738  	80.612278 
2465.315396  	80.580059 
2466.747054  	80.527039 
2468.178712  	80.545027 
2469.610371  	80.559236 
2471.042029  	80.555698 
2472.473687  	80.552389 
2473.905345  	80.510909 
2475.337003  	80.520327 
2476.768662  	80.586369 
2478.200320  	80.617829 
2479.631978  	80.644706 
2481.063636  	80.645855 
2482.495294  	80.604624 
2483.926953  	80.582977 
2485.358611  	80.592858 
2486.790269  	80.643922 
2488.221927  	80.684583 
2489.653585  	80.690577 
2491.085243  	80.727040 
2492.516902  	80.737283 
2493.948560  	80.726207 
2495.380218  	80.743673 
2496.811876  	80.716749 
2498.243534  	80.731948 
2499.675193  	80.807577 
2501.106851  	80.773805 
2502.538509  	80.723504 
2503.970167  	80.778254 
2505.401825  	80.834226 
2506.833483  	80.825598 
2508.265142  	80.799172 
2509.696800  	80.825645 
2511.128458  	80.837622 
2512.560116  	80.818255 
2513.991774  	80.887052 
2515.423433  	80.896931 
2516.855091  	80.792465 
2518.286749  	80.811700 
2519.718407  	80.890081 
2521.150065  	80.927101 
2522.581724  	80.986691 
2524.013382  	80.963635 
2525.445040  	80.889460 
2526.876698  	80.906973 
2528.308356  	80.970255 
2529.740014  	81.004373 
2531.171673  	80.977152 
2532.603331  	80.967068 
2534.034989  	81.003731 
2535.466647  	80.987127 
2536.898305  	81.020973 
2538.329964  	81.117334 
2539.761622  	81.104289 
2541.193280  	81.081245 
2542.624938  	81.089665 
2544.056596  	81.037495 
2545.488254  	81.032505 
2546.919913  	81.101476 
2548.351571  	81.133840 
2549.783229  	81.100913 
2551.214887  	81.083825 
2552.646545  	81.145252 
2554.078204  	81.155055 
2555.509862  	81.094030 
2556.941520  	81.074566 
2558.373178  	81.042857 
2559.804836  	81.074655 
2561.236495  	81.189370 
2562.668153  	81.164597 
2564.099811  	81.109455 
2565.531469  	81.169166 
2566.963127  	81.184843 
2568.394785  	81.146982 
2569.826444  	81.143757 
2571.258102  	81.208179 
2572.689760  	81.277665 
2574.121418  	81.191550 
2575.553076  	81.079521 
2576.984735  	81.135470 
2578.416393  	81.251322 
2579.848051  	81.316777 
2581.279709  	81.286433 
2582.711367  	81.222557 
2584.143026  	81.286015 
2585.574684  	81.374311 
2587.006342  	81.318577 
2588.438000  	81.208360 
2589.869658  	81.202393 
2591.301316  	81.292003 
2592.732975  	81.302153 
2594.164633  	81.249296 
2595.596291  	81.285802 
2597.027949  	81.306995 
2598.459607  	81.285105 
2599.891266  	81.341318 
2601.322924  	81.369380 
2602.754582  	81.335456 
2604.186240  	81.344436 
2605.617898  	81.324654 
2607.049556  	81.260873 
2608.481215  	81.283860 
2609.912873  	81.366720 
2611.344531  	81.383095 
2612.776189  	81.372914 
2614.207847  	81.415614 
2615.639506  	81.427538 
2617.071164  	81.378250 
2618.502822  	81.359193 
2619.934480  	81.371812 
2621.366138  	81.375416 
2622.797797  	81.363584 
2624.229455  	81.368714 
2625.661113  	81.426670 
2627.092771  	81.469105 
2628.524429  	81.473460 
2629.956087  	81.492824 
2631.387746  	81.485457 
2632.819404  	81.449263 
2634.251062  	81.436504 
2635.682720  	81.455065 
2637.114378  	81.491120 
2638.546037  	81.460399 
2639.977695  	81.393908 
2641.409353  	81.424880 
2642.841011  	81.479860 
2644.272669  	81.481867 
2645.704328  	81.464998 
2647.135986  	81.431711 
2648.567644  	81.448878 
2649.999302  	81.500712 
2651.430960  	81.496191 
2652.862618  	81.499754 
2654.294277  	81.523220 
2655.725935  	81.518987 
2657.157593  	81.519355 
2658.589251  	81.503933 
2660.020909  	81.471668 
2661.452568  	81.449514 
2662.884226  	81.440858 
2664.315884  	81.487241 
2665.747542  	81.525379 
2667.179200  	81.495098 
2668.610858  	81.485485 
2670.042517  	81.494824 
2671.474175  	81.493636 
2672.905833  	81.518735 
2674.337491  	81.536453 
2675.769149  	81.537834 
2677.200808  	81.549492 
2678.632466  	81.576897 
2680.064124  	81.607462 
2681.495782  	81.588922 
2682.927440  	81.573630 
2684.359099  	81.604368 
2685.790757  	81.599280 
2687.222415  	81.598248 
2688.654073  	81.620267 
2690.085731  	81.605241 
2691.517389  	81.629710 
2692.949048  	81.677791 
2694.380706  	81.677004 
2695.812364  	81.678378 
2697.244022  	81.672567 
2698.675680  	81.675413 
2700.107339  	81.703336 
2701.538997  	81.681488 
2702.970655  	81.655899 
2704.402313  	81.655628 
2705.833971  	81.645540 
2707.265630  	81.665617 
2708.697288  	81.675701 
2710.128946  	81.667919 
2711.560604  	81.687745 
2712.992262  	81.687111 
2714.423920  	81.710930 
2715.855579  	81.765993 
2717.287237  	81.774394 
2718.718895  	81.793798 
2720.150553  	81.788455 
2721.582211  	81.732770 
2723.013870  	81.761993 
2724.445528  	81.808747 
2725.877186  	81.778275 
2727.308844  	81.760064 
2728.740502  	81.784573 
2730.172160  	81.827907 
2731.603819  	81.841202 
2733.035477  	81.823461 
2734.467135  	81.833429 
2735.898793  	81.814924 
2737.330451  	81.793663 
2738.762110  	81.836534 
2740.193768  	81.835480 
2741.625426  	81.816569 
2743.057084  	81.861325 
2744.488742  	81.886983 
2745.920401  	81.893374 
2747.352059  	81.902843 
2748.783717  	81.898824 
2750.215375  	81.910457 
2751.647033  	81.904043 
2753.078691  	81.893076 
2754.510350  	81.922737 
2755.942008  	81.940601 
2757.373666  	81.949880 
2758.805324  	81.950039 
2760.236982  	81.913696 
2761.668641  	81.906629 
2763.100299  	81.932377 
2764.531957  	81.956524 
2765.963615  	81.993572 
2767.395273  	82.001064 
2768.826931  	81.964962 
2770.258590  	81.931822 
2771.690248  	81.921415 
2773.121906  	81.937407 
2774.553564  	81.956148 
2775.985222  	81.960628 
2777.416881  	81.961419 
2778.848539  	81.969491 
2780.280197  	81.985760 
2781.711855  	81.980411 
2783.143513  	81.985489 
2784.575172  	82.048184 
2786.006830  	82.091219 
2787.438488  	82.079304 
2788.870146  	82.062071 
2790.301804  	82.047955 
2791.733462  	82.034142 
2793.165121  	82.010228 
2794.596779  	82.008404 
2796.028437  	82.040596 
2797.460095  	82.029482 
2798.891753  	82.022125 
2800.323412  	82.066257 
2801.755070  	82.085268 
2803.186728  	82.109012 
2804.618386  	82.122637 
2806.050044  	82.070015 
2807.481703  	82.049634 
2808.913361  	82.066426 
2810.345019  	82.081747 
2811.776677  	82.114441 
2813.208335  	82.110005 
2814.639993  	82.117804 
2816.071652  	82.150038 
2817.503310  	82.092501 
2818.934968  	82.035130 
2820.366626  	82.054964 
2821.798284  	82.085220 
2823.229943  	82.126090 
2824.661601  	82.149068 
2826.093259  	82.152718 
2827.524917  	82.148763 
2828.956575  	82.101666 
2830.388233  	82.101650 
2831.819892  	82.146734 
2833.251550  	82.150794 
2834.683208  	82.169205 
2836.114866  	82.147306 
2837.546524  	82.073368 
2838.978183  	82.076854 
2840.409841  	82.095105 
2841.841499  	82.095994 
2843.273157  	82.108393 
2844.704815  	82.062407 
2846.136474  	82.034109 
2847.568132  	82.063217 
2848.999790  	82.074185 
2850.431448  	82.084440 
2851.863106  	82.048607 
2853.294764  	81.989872 
2854.726423  	82.013528 
2856.158081  	82.050881 
2857.589739  	82.078624 
2859.021397  	82.095510 
2860.453055  	82.049123 
2861.884714  	82.027186 
2863.316372  	82.016485 
2864.748030  	81.956202 
2866.179688  	81.947226 
2867.611346  	81.968262 
2869.043005  	81.968107 
2870.474663  	81.997974 
2871.906321  	82.022027 
2873.337979  	82.029911 
2874.769637  	82.041498 
2876.201295  	82.039463 
2877.632954  	82.067284 
2879.064612  	82.124241 
2880.496270  	82.167991 
2881.927928  	82.193200 
2883.359586  	82.180216 
2884.791245  	82.153152 
2886.222903  	82.145537 
2887.654561  	82.144522 
2889.086219  	82.140673 
2890.517877  	82.131527 
2891.949535  	82.155193 
2893.381194  	82.203604 
2894.812852  	82.210709 
2896.244510  	82.224268 
2897.676168  	82.272688 
2899.107826  	82.292580 
2900.539485  	82.290340 
2901.971143  	82.289957 
2903.402801  	82.300138 
2904.834459  	82.301475 
2906.266117  	82.256858 
2907.697776  	82.232555 
2909.129434  	82.250994 
2910.561092  	82.254070 
2911.992750  	82.274656 
2913.424408  	82.317779 
2914.856066  	82.341051 
2916.287725  	82.343576 
2917.719383  	82.329328 
2919.151041  	82.327749 
2920.582699  	82.322338 
2922.014357  	82.318478 
2923.446016  	82.379619 
2924.877674  	82.383148 
2926.309332  	82.276227 
2927.740990  	82.244651 
2929.172648  	82.278561 
2930.604306  	82.268388 
2932.035965  	82.257251 
2933.467623  	82.263044 
2934.899281  	82.269695 
2936.330939  	82.255592 
2937.762597  	82.223120 
2939.194256  	82.233220 
2940.625914  	82.269867 
2942.057572  	82.301810 
2943.489230  	82.326785 
2944.920888  	82.322083 
2946.352547  	82.335441 
2947.784205  	82.342998 
2949.215863  	82.266451 
2950.647521  	82.196940 
2952.079179  	82.175654 
2953.510837  	82.145162 
2954.942496  	82.139502 
2956.374154  	82.146401 
2957.805812  	82.106219 
2959.237470  	82.042916 
2960.669128  	82.011029 
2962.100787  	82.022158 
2963.532445  	82.031042 
2964.964103  	82.066110 
2966.395761  	82.191582 
2967.827419  	82.318697 
2969.259078  	82.386875 
2970.690736  	82.467271 
2972.122394  	82.583717 
2973.554052  	82.724113 
2974.985710  	82.874755 
2976.417368  	83.012959 
2977.849027  	83.130738 
2979.280685  	83.220652 
2980.712343  	83.309365 
2982.144001  	83.401588 
2983.575659  	83.469519 
2985.007318  	83.533937 
2986.438976  	83.590209 
2987.870634  	83.630244 
2989.302292  	83.679701 
2990.733950  	83.724773 
2992.165608  	83.762888 
2993.597267  	83.785606 
2995.028925  	83.796301 
2996.460583  	83.825570 
2997.892241  	83.812515 
2999.323899  	83.785087 
3000.755558  	83.824086 
3002.187216  	83.832834 
3003.618874  	83.833696 
3005.050532  	83.884105 
3006.482190  	83.847454 
3007.913849  	83.791798 
3009.345507  	83.823231 
3010.777165  	83.805287 
3012.208823  	83.752736 
3013.640481  	83.786529 
3015.072139  	83.851912 
3016.503798  	83.840100 
3017.935456  	83.771846 
3019.367114  	83.789038 
3020.798772  	83.836775 
3022.230430  	83.771055 
3023.662089  	83.725761 
3025.093747  	83.760717 
3026.525405  	83.756656 
3027.957063  	83.734173 
3029.388721  	83.708388 
3030.820380  	83.668276 
3032.252038  	83.633810 
3033.683696  	83.576968 
3035.115354  	83.567742 
3036.547012  	83.640580 
3037.978670  	83.686536 
3039.410329  	83.688685 
3040.841987  	83.659836 
3042.273645  	83.620705 
3043.705303  	83.639002 
3045.136961  	83.664591 
3046.568620  	83.646833 
3048.000278  	83.635469 
3049.431936  	83.666334 
3050.863594  	83.729749 
3052.295252  	83.735827 
3053.726910  	83.670449 
3055.158569  	83.650946 
3056.590227  	83.673306 
3058.021885  	83.680234 
3059.453543  	83.691951 
3060.885201  	83.695081 
3062.316860  	83.680950 
3063.748518  	83.676446 
3065.180176  	83.689517 
3066.611834  	83.708126 
3068.043492  	83.738541 
3069.475151  	83.812813 
3070.906809  	83.867511 
3072.338467  	83.845428 
3073.770125  	83.841671 
3075.201783  	83.857866 
3076.633441  	83.838784 
3078.065100  	83.877905 
3079.496758  	83.969631 
3080.928416  	83.972918 
3082.360074  	83.894341 
3083.791732  	83.880273 
3085.223391  	83.975349 
3086.655049  	84.049076 
3088.086707  	84.041621 
3089.518365  	84.001912 
3090.950023  	83.954698 
3092.381682  	83.995349 
3093.813340  	84.097670 
3095.244998  	84.079443 
3096.676656  	84.014724 
3098.108314  	84.010675 
3099.539972  	83.985208 
3100.971631  	83.983233 
3102.403289  	84.022898 
3103.834947  	84.024517 
3105.266605  	84.070837 
3106.698263  	84.171097 
3108.129922  	84.161099 
3109.561580  	84.052080 
3110.993238  	84.022358 
3112.424896  	84.073095 
3113.856554  	84.071738 
3115.288212  	84.058739 
3116.719871  	84.105293 
3118.151529  	84.152138 
3119.583187  	84.188029 
3121.014845  	84.189900 
3122.446503  	84.147644 
3123.878162  	84.147176 
3125.309820  	84.160186 
3126.741478  	84.180325 
3128.173136  	84.242209 
3129.604794  	84.210293 
3131.036453  	84.128637 
3132.468111  	84.160217 
3133.899769  	84.216367 
3135.331427  	84.244396 
3136.763085  	84.270490 
3138.194743  	84.244141 
3139.626402  	84.206693 
3141.058060  	84.202246 
3142.489718  	84.210865 
3143.921376  	84.232602 
3145.353034  	84.267926 
3146.784693  	84.318676 
3148.216351  	84.311498 
3149.648009  	84.241944 
3151.079667  	84.252556 
3152.511325  	84.294981 
3153.942983  	84.260040 
3155.374642  	84.217610 
3156.806300  	84.220723 
3158.237958  	84.294297 
3159.669616  	84.376540 
3161.101274  	84.355627 
3162.532933  	84.318226 
3163.964591  	84.320437 
3165.396249  	84.301469 
3166.827907  	84.280076 
3168.259565  	84.273169 
3169.691224  	84.308536 
3171.122882  	84.341333 
3172.554540  	84.284775 
3173.986198  	84.283566 
3175.417856  	84.366244 
3176.849514  	84.365836 
3178.281173  	84.351434 
3179.712831  	84.368854 
3181.144489  	84.358318 
3182.576147  	84.396244 
3184.007805  	84.446500 
3185.439464  	84.418888 
3186.871122  	84.363480 
3188.302780  	84.320466 
3189.734438  	84.326105 
3191.166096  	84.372127 
3192.597755  	84.397114 
3194.029413  	84.413072 
3195.461071  	84.426434 
3196.892729  	84.464333 
3198.324387  	84.536253 
3199.756045  	84.510073 
3201.187704  	84.414348 
3202.619362  	84.420125 
3204.051020  	84.462410 
3205.482678  	84.443852 
3206.914336  	84.441721 
3208.345995  	84.452405 
3209.777653  	84.440984 
3211.209311  	84.493993 
3212.640969  	84.573960 
3214.072627  	84.569679 
3215.504285  	84.559048 
3216.935944  	84.577449 
3218.367602  	84.550106 
3219.799260  	84.508478 
3221.230918  	84.461052 
3222.662576  	84.452771 
3224.094235  	84.544726 
3225.525893  	84.547148 
3226.957551  	84.456011 
3228.389209  	84.518838 
3229.820867  	84.614190 
3231.252526  	84.592039 
3232.684184  	84.590328 
3234.115842  	84.612433 
3235.547500  	84.609101 
3236.979158  	84.613603 
3238.410816  	84.622063 
3239.842475  	84.643188 
3241.274133  	84.636408 
3242.705791  	84.595079 
3244.137449  	84.614075 
3245.569107  	84.660327 
3247.000766  	84.653085 
3248.432424  	84.627735 
3249.864082  	84.621961 
3251.295740  	84.639143 
3252.727398  	84.679678 
3254.159057  	84.729674 
3255.590715  	84.725103 
3257.022373  	84.671716 
3258.454031  	84.690695 
3259.885689  	84.739967 
3261.317347  	84.731782 
3262.749006  	84.735291 
3264.180664  	84.708229 
3265.612322  	84.646975 
3267.043980  	84.688974 
3268.475638  	84.744672 
3269.907297  	84.704108 
3271.338955  	84.649645 
3272.770613  	84.659646 
3274.202271  	84.756476 
3275.633929  	84.810217 
3277.065587  	84.764532 
3278.497246  	84.797251 
3279.928904  	84.867452 
3281.360562  	84.855280 
3282.792220  	84.855957 
3284.223878  	84.861959 
3285.655537  	84.847357 
3287.087195  	84.860222 
3288.518853  	84.828619 
3289.950511  	84.769918 
3291.382169  	84.783165 
3292.813828  	84.831155 
3294.245486  	84.860897 
3295.677144  	84.855975 
3297.108802  	84.835442 
3298.540460  	84.844172 
3299.972118  	84.852108 
3301.403777  	84.836221 
3302.835435  	84.831932 
3304.267093  	84.855676 
3305.698751  	84.914120 
3307.130409  	84.979513 
3308.562068  	84.986724 
3309.993726  	84.952304 
3311.425384  	84.955316 
3312.857042  	84.952202 
3314.288700  	84.881163 
3315.720359  	84.842866 
3317.152017  	84.861306 
3318.583675  	84.868751 
3320.015333  	84.914631 
3321.446991  	84.952877 
3322.878649  	84.934426 
3324.310308  	84.978143 
3325.741966  	85.002531 
3327.173624  	84.926748 
3328.605282  	84.941488 
3330.036940  	85.036828 
3331.468599  	85.039754 
3332.900257  	84.959320 
3334.331915  	84.907768 
3335.763573  	84.954161 
3337.195231  	84.983684 
3338.626889  	84.938391 
3340.058548  	84.963731 
3341.490206  	84.996238 
3342.921864  	84.942981 
3344.353522  	84.933234 
3345.785180  	84.971851 
3347.216839  	85.018274 
3348.648497  	85.065866 
3350.080155  	85.029295 
3351.511813  	84.990386 
3352.943471  	85.042736 
3354.375130  	85.079449 
3355.806788  	85.081536 
3357.238446  	85.085186 
3358.670104  	85.065651 
3360.101762  	85.068652 
3361.533420  	85.121683 
3362.965079  	85.152752 
3364.396737  	85.144196 
3365.828395  	85.170641 
3367.260053  	85.203244 
3368.691711  	85.148242 
3370.123370  	85.089586 
3371.555028  	85.098749 
3372.986686  	85.104377 
3374.418344  	85.104920 
3375.850002  	85.102901 
3377.281660  	85.102664 
3378.713319  	85.166117 
3380.144977  	85.209202 
3381.576635  	85.153392 
3383.008293  	85.106154 
3384.439951  	85.151059 
3385.871610  	85.245526 
3387.303268  	85.265976 
3388.734926  	85.219514 
3390.166584  	85.226676 
3391.598242  	85.214519 
3393.029901  	85.151370 
3394.461559  	85.164260 
3395.893217  	85.200323 
3397.324875  	85.219576 
3398.756533  	85.257105 
3400.188191  	85.232195 
3401.619850  	85.188346 
3403.051508  	85.201664 
3404.483166  	85.186183 
3405.914824  	85.152361 
3407.346482  	85.175118 
3408.778141  	85.203506 
3410.209799  	85.194933 
3411.641457  	85.217985 
3413.073115  	85.300524 
3414.504773  	85.346853 
3415.936432  	85.348324 
3417.368090  	85.350283 
3418.799748  	85.294503 
3420.231406  	85.244151 
3421.663064  	85.286096 
3423.094722  	85.299526 
3424.526381  	85.278442 
3425.958039  	85.311843 
3427.389697  	85.330478 
3428.821355  	85.281868 
3430.253013  	85.238994 
3431.684672  	85.266790 
3433.116330  	85.308877 
3434.547988  	85.317669 
3435.979646  	85.365911 
3437.411304  	85.415650 
3438.842962  	85.406500 
3440.274621  	85.419888 
3441.706279  	85.425169 
3443.137937  	85.383762 
3444.569595  	85.362912 
3446.001253  	85.350810 
3447.432912  	85.376973 
3448.864570  	85.430303 
3450.296228  	85.431756 
3451.727886  	85.458784 
3453.159544  	85.467158 
3454.591203  	85.400403 
3456.022861  	85.434052 
3457.454519  	85.497690 
3458.886177  	85.437730 
3460.317835  	85.433908 
3461.749493  	85.503654 
3463.181152  	85.483135 
3464.612810  	85.475102 
3466.044468  	85.538252 
3467.476126  	85.519162 
3468.907784  	85.462635 
3470.339443  	85.496085 
3471.771101  	85.495002 
3473.202759  	85.447486 
3474.634417  	85.485078 
3476.066075  	85.492665 
3477.497734  	85.473151 
3478.929392  	85.546892 
3480.361050  	85.528582 
3481.792708  	85.444628 
3483.224366  	85.519168 
3484.656024  	85.580330 
3486.087683  	85.563760 
3487.519341  	85.584740 
3488.950999  	85.567104 
3490.382657  	85.567599 
3491.814315  	85.661706 
3493.245974  	85.708450 
3494.677632  	85.690839 
3496.109290  	85.713430 
3497.540948  	85.741713 
3498.972606  	85.665767 
3500.404264  	85.576176 
3501.835923  	85.634634 
3503.267581  	85.677008 
3504.699239  	85.562314 
3506.130897  	85.533199 
3507.562555  	85.618764 
3508.994214  	85.662985 
3510.425872  	85.654537 
3511.857530  	85.632853 
3513.289188  	85.670837 
3514.720846  	85.781940 
3516.152505  	85.822219 
3517.584163  	85.741965 
3519.015821  	85.659230 
3520.447479  	85.641962 
3521.879137  	85.644716 
3523.310795  	85.682726 
3524.742454  	85.731328 
3526.174112  	85.654216 
3527.605770  	85.589829 
3529.037428  	85.666631 
3530.469086  	85.686174 
3531.900745  	85.696323 
3533.332403  	85.753247 
3534.764061  	85.691051 
3536.195719  	85.669603 
3537.627377  	85.739544 
3539.059035  	85.697946 
3540.490694  	85.743340 
3541.922352  	85.877694 
3543.354010  	85.825386 
3544.785668  	85.724993 
3546.217326  	85.752576 
3547.648985  	85.822519 
3549.080643  	85.831682 
3550.512301  	85.742909 
3551.943959  	85.706862 
3553.375617  	85.811064 
3554.807276  	85.875810 
3556.238934  	85.865016 
3557.670592  	85.829864 
3559.102250  	85.815675 
3560.533908  	85.864848 
3561.965566  	85.903107 
3563.397225  	85.891782 
3564.828883  	85.828361 
3566.260541  	85.788163 
3567.692199  	85.949046 
3569.123857  	86.003912 
3570.555516  	85.869175 
3571.987174  	85.880093 
3573.418832  	85.929597 
3574.850490  	85.840850 
3576.282148  	85.807238 
3577.713807  	85.922270 
3579.145465  	86.062978 
3580.577123  	86.122074 
3582.008781  	86.054070 
3583.440439  	85.913315 
3584.872097  	85.808531 
3586.303756  	85.884613 
3587.735414  	86.128915 
3589.167072  	86.168650 
3590.598730  	86.054872 
3592.030388  	86.021663 
3593.462047  	85.991071 
3594.893705  	85.963476 
3596.325363  	86.015821 
3597.757021  	86.044502 
3599.188679  	86.009710 
3600.620337  	86.041077 
3602.051996  	86.119798 
3603.483654  	86.105148 
3604.915312  	86.098738 
3606.346970  	86.139314 
3607.778628  	86.130441 
3609.210287  	86.177720 
3610.641945  	86.179210 
3612.073603  	85.995085 
3613.505261  	85.932970 
3614.936919  	86.056899 
3616.368578  	86.046314 
3617.800236  	85.998334 
3619.231894  	86.092825 
3620.663552  	86.302144 
3622.095210  	86.336682 
3623.526868  	86.179606 
3624.958527  	86.080371 
3626.390185  	85.975832 
3627.821843  	85.765750 
3629.253501  	85.899451 
3630.685159  	86.211362 
3632.116818  	86.131175 
3633.548476  	86.180487 
3634.980134  	86.238513 
3636.411792  	86.159473 
3637.843450  	86.239866 
3639.275109  	86.295512 
3640.706767  	86.200627 
3642.138425  	86.231927 
3643.570083  	86.271510 
3645.001741  	86.164050 
3646.433399  	86.074654 
3647.865058  	86.008941 
3649.296716  	85.873748 
3650.728374  	85.957737 
3652.160032  	86.261036 
3653.591690  	86.268743 
3655.023349  	86.198880 
3656.455007  	86.327015 
3657.886665  	86.368840 
3659.318323  	86.274238 
3660.749981  	86.308706 
3662.181639  	86.335472 
3663.613298  	86.323865 
3665.044956  	86.338628 
3666.476614  	86.222545 
3667.908272  	86.031101 
3669.339930  	85.952420 
3670.771589  	86.015910 
3672.203247  	85.991998 
3673.634905  	85.897185 
3675.066563  	86.094539 
3676.498221  	86.595348 
3677.929880  	86.440332 
3679.361538  	86.419469 
3680.793196  	86.523969 
3682.224854  	86.425185 
3683.656512  	86.412186 
3685.088170  	86.365300 
3686.519829  	86.146015 
3687.951487  	86.160239 
3689.383145  	86.356690 
3690.814803  	86.282737 
3692.246461  	86.302252 
3693.678120  	86.389966 
3695.109778  	86.397344 
3696.541436  	86.423784 
3697.973094  	86.418574 
3699.404752  	86.358209 
3700.836411  	86.330904 
3702.268069  	86.397017 
3703.699727  	86.474449 
3705.131385  	86.441160 
3706.563043  	86.362982 
3707.994701  	86.344159 
3709.426360  	86.404922 
3710.858018  	86.425421 
3712.289676  	86.357934 
3713.721334  	86.465697 
3715.152992  	86.549337 
3716.584651  	86.429818 
3718.016309  	86.401338 
3719.447967  	86.500950 
3720.879625  	86.459772 
3722.311283  	86.417332 
3723.742941  	86.428356 
3725.174600  	86.392247 
3726.606258  	86.461559 
3728.037916  	86.524376 
3729.469574  	86.446847 
3730.901232  	86.414946 
3732.332891  	86.377193 
3733.764549  	86.215235 
3735.196207  	86.236667 
3736.627865  	86.622698 
3738.059523  	86.737949 
3739.491182  	86.666456 
3740.922840  	86.670550 
3742.354498  	86.517042 
3743.786156  	86.388263 
3745.217814  	86.815575 
3746.649472  	86.706531 
3748.081131  	86.354479 
3749.512789  	86.445201 
3750.944447  	86.717580 
3752.376105  	86.708750 
3753.807763  	86.709395 
3755.239422  	86.653217 
3756.671080  	86.700252 
3758.102738  	86.792251 
3759.534396  	86.732304 
3760.966054  	86.783678 
3762.397712  	86.713042 
3763.829371  	86.487851 
3765.261029  	86.550915 
3766.692687  	86.721572 
3768.124345  	86.632299 
3769.556003  	86.650614 
3770.987662  	86.758210 
3772.419320  	86.737119 
3773.850978  	86.728463 
3775.282636  	86.729066 
3776.714294  	86.722589 
3778.145953  	86.703886 
3779.577611  	86.692706 
3781.009269  	86.750982 
3782.440927  	86.735111 
3783.872585  	86.632998 
3785.304243  	86.566569 
3786.735902  	86.602646 
3788.167560  	86.689714 
3789.599218  	86.704204 
3791.030876  	86.682977 
3792.462534  	86.765387 
3793.894193  	86.800078 
3795.325851  	86.726926 
3796.757509  	86.687068 
3798.189167  	86.608369 
3799.620825  	86.468254 
3801.052484  	86.440111 
3802.484142  	86.675438 
3803.915800  	86.729944 
3805.347458  	86.605178 
3806.779116  	86.699227 
3808.210774  	86.980737 
3809.642433  	86.855636 
3811.074091  	86.707686 
3812.505749  	86.757695 
3813.937407  	86.748920 
3815.369065  	86.717597 
3816.800724  	86.824890 
3818.232382  	86.665452 
3819.664040  	86.463458 
3821.095698  	86.730125 
3822.527356  	87.129911 
3823.959014  	86.864812 
3825.390673  	86.732156 
3826.822331  	86.867791 
3828.253989  	86.853234 
3829.685647  	86.779201 
3831.117305  	86.860162 
3832.548964  	86.890531 
3833.980622  	86.825689 
3835.412280  	86.770243 
3836.843938  	86.696047 
3838.275596  	86.719085 
3839.707255  	86.816545 
3841.138913  	86.835948 
3842.570571  	86.876673 
3844.002229  	86.969893 
3845.433887  	86.978954 
3846.865545  	86.859463 
3848.297204  	86.805284 
3849.728862  	86.852974 
3851.160520  	86.752721 
3852.592178  	86.612482 
3854.023836  	86.903235 
3855.455495  	87.047620 
3856.887153  	86.998524 
3858.318811  	87.008142 
3859.750469  	86.924186 
3861.182127  	86.892621 
3862.613786  	86.862521 
3864.045444  	86.739370 
3865.477102  	86.887877 
3866.908760  	86.951076 
3868.340418  	86.717325 
3869.772076  	86.801503 
3871.203735  	87.111888 
3872.635393  	86.947137 
3874.067051  	86.926829 
3875.498709  	87.066944 
3876.930367  	86.959513 
3878.362026  	86.849347 
3879.793684  	86.874042 
3881.225342  	86.991444 
3882.657000  	86.999822 
3884.088658  	86.862735 
3885.520316  	86.840008 
3886.951975  	87.019049 
3888.383633  	86.981633 
3889.815291  	86.889839 
3891.246949  	86.966671 
3892.678607  	87.080112 
3894.110266  	87.090595 
3895.541924  	87.045066 
3896.973582  	86.921028 
3898.405240  	86.872106 
3899.836898  	86.946681 
3901.268557  	86.843795 
3902.700215  	86.755026 
3904.131873  	86.984912 
3905.563531  	87.153064 
3906.995189  	87.100825 
3908.426847  	87.092009 
3909.858506  	87.099210 
3911.290164  	87.129536 
3912.721822  	87.199341 
3914.153480  	87.165923 
3915.585138  	87.066697 
3917.016797  	87.013393 
3918.448455  	87.022481 
3919.880113  	87.085938 
3921.311771  	87.108566 
3922.743429  	87.049518 
3924.175088  	87.044274 
3925.606746  	87.114075 
3927.038404  	87.148373 
3928.470062  	87.173732 
3929.901720  	87.195555 
3931.333378  	87.155983 
3932.765037  	87.133621 
3934.196695  	87.161907 
3935.628353  	87.153391 
3937.060011  	87.161338 
3938.491669  	87.174399 
3939.923328  	87.087254 
3941.354986  	87.057631 
3942.786644  	87.159656 
3944.218302  	87.134276 
3945.649960  	87.064008 
3947.081618  	87.158246 
3948.513277  	87.243491 
3949.944935  	87.223179 
3951.376593  	87.222154 
3952.808251  	87.198312 
3954.239909  	87.153660 
3955.671568  	87.180525 
3957.103226  	87.225009 
3958.534884  	87.226361 
3959.966542  	87.216874 
3961.398200  	87.199433 
3962.829859  	87.204655 
3964.261517  	87.251175 
3965.693175  	87.230808 
3967.124833  	87.152758 
3968.556491  	87.136765 
3969.988149  	87.140627 
3971.419808  	87.170066 
3972.851466  	87.285442 
3974.283124  	87.330210 
3975.714782  	87.281792 
3977.146440  	87.283340 
3978.578099  	87.295417 
3980.009757  	87.299250 
3981.441415  	87.287441 
3982.873073  	87.215352 
3984.304731  	87.203282 
3985.736389  	87.241550 
3987.168048  	87.223624 
3988.599706  	87.226719 
3990.031364  	87.235104 
3991.463022  	87.215720 
3992.894680  	87.260134 
3994.326339  	87.325312 
3995.757997  	87.357243 
3997.189655  	87.337256 
3998.621313  	87.233353 
4000.052971  	87.179946 