##TITLE=No Description
##DATA TYPE=INFRARED SPECTRUM
##XUNITS=1/CM
##YUNITS=%T
399.432634  	92.050749 
400.864292  	86.140140 
402.295950  	85.706958 
403.727608  	84.224011 
405.159267  	77.230918 
406.590925  	78.330310 
408.022583  	84.783372 
409.454241  	84.228864 
410.885899  	81.543721 
412.317558  	81.941552 
413.749216  	84.015932 
415.180874  	83.935314 
416.612532  	81.753890 
418.044190  	83.893058 
419.475848  	87.389970 
420.907507  	86.792441 
422.339165  	88.757402 
423.770823  	87.002916 
425.202481  	83.461774 
426.634139  	86.273389 
428.065798  	88.443642 
429.497456  	87.110463 
430.929114  	87.083156 
432.360772  	87.135078 
433.792430  	86.902731 
435.224089  	88.383300 
436.655747  	90.880979 
438.087405  	89.781596 
439.519063  	85.285736 
440.950721  	84.256153 
442.382379  	85.994480 
443.814038  	84.313542 
445.245696  	85.483397 
446.677354  	88.916352 
448.109012  	86.251575 
449.540670  	84.105587 
450.972329  	86.310672 
452.403987  	86.673578 
453.835645  	85.368528 
455.267303  	85.249364 
456.698961  	85.271300 
458.130619  	85.869927 
459.562278  	86.685406 
460.993936  	86.696453 
462.425594  	86.504890 
463.857252  	86.324967 
465.288910  	85.812502 
466.720569  	84.701344 
468.152227  	84.019889 
469.583885  	83.884973 
471.015543  	82.735209 
472.447201  	81.549133 
473.878860  	82.241758 
475.310518  	83.407435 
476.742176  	83.577404 
478.173834  	82.229670 
479.605492  	80.660144 
481.037150  	80.172315 
482.468809  	80.166016 
483.900467  	80.117984 
485.332125  	79.141005 
486.763783  	76.713896 
488.195441  	75.206689 
489.627100  	76.128841 
491.058758  	77.682802 
492.490416  	77.595856 
493.922074  	75.844702 
495.353732  	73.979645 
496.785391  	73.033861 
498.217049  	72.394922 
499.648707  	71.078686 
501.080365  	68.168455 
502.512023  	63.366469 
503.943681  	58.911245 
505.375340  	55.326284 
506.806998  	51.789976 
508.238656  	49.864106 
509.670314  	51.117023 
511.101972  	53.970286 
512.533631  	56.343998 
513.965289  	58.607392 
515.396947  	61.194204 
516.828605  	63.554494 
518.260263  	66.212953 
519.691921  	69.233492 
521.123580  	72.215207 
522.555238  	75.552294 
523.986896  	78.348342 
525.418554  	79.653154 
526.850212  	80.424000 
528.281871  	81.307773 
529.713529  	82.085309 
531.145187  	82.570787 
532.576845  	82.510173 
534.008503  	82.344332 
535.440162  	81.998339 
536.871820  	81.435591 
538.303478  	81.901406 
539.735136  	82.838622 
541.166794  	82.650276 
542.598452  	81.979861 
544.030111  	81.502490 
545.461769  	81.329402 
546.893427  	81.942109 
548.325085  	82.539437 
549.756743  	82.435753 
551.188402  	82.048369 
552.620060  	81.535454 
554.051718  	81.405796 
555.483376  	81.824498 
556.915034  	81.933784 
558.346692  	81.681487 
559.778351  	81.279257 
561.210009  	80.585851 
562.641667  	80.248578 
564.073325  	80.551354 
565.504983  	80.608399 
566.936642  	80.127205 
568.368300  	79.767017 
569.799958  	79.887672 
571.231616  	80.060118 
572.663274  	79.917670 
574.094933  	79.562214 
575.526591  	78.804630 
576.958249  	77.804826 
578.389907  	77.641276 
579.821565  	78.217810 
581.253223  	78.455406 
582.684882  	78.358379 
584.116540  	78.207623 
585.548198  	77.802432 
586.979856  	77.781427 
588.411514  	78.243852 
589.843173  	78.318429 
591.274831  	78.147121 
592.706489  	77.828281 
594.138147  	77.089973 
595.569805  	76.803416 
597.001464  	77.015518 
598.433122  	76.652263 
599.864780  	75.803333 
601.296438  	74.821361 
602.728096  	73.490626 
604.159754  	71.864438 
605.591413  	70.228666 
607.023071  	68.808871 
608.454729  	67.547454 
609.886387  	66.714157 
611.318045  	66.919642 
612.749704  	68.179706 
614.181362  	69.820922 
615.613020  	71.049725 
617.044678  	71.549671 
618.476336  	71.849616 
619.907994  	72.346437 
621.339653  	72.630134 
622.771311  	72.704813 
624.202969  	72.619187 
625.634627  	72.176368 
627.066285  	71.787447 
628.497944  	71.576801 
629.929602  	71.399999 
631.361260  	71.209358 
632.792918  	70.512924 
634.224576  	69.439000 
635.656235  	68.738325 
637.087893  	68.637081 
638.519551  	68.908837 
639.951209  	68.879049 
641.382867  	68.441349 
642.814525  	68.268299 
644.246184  	68.106087 
645.677842  	68.061977 
647.109500  	68.672496 
648.541158  	68.794334 
649.972816  	68.071380 
651.404475  	67.659519 
652.836133  	67.485515 
654.267791  	67.750275 
655.699449  	68.449435 
657.131107  	67.833991 
658.562766  	66.758165 
659.994424  	67.691770 
661.426082  	69.030487 
662.857740  	68.949126 
664.289398  	68.601290 
665.721056  	68.258189 
667.152715  	66.984418 
668.584373  	66.865461 
670.016031  	68.856402 
671.447689  	69.385388 
672.879347  	69.137516 
674.311006  	69.380342 
675.742664  	69.992922 
677.174322  	70.375654 
678.605980  	70.782276 
680.037638  	71.350822 
681.469296  	71.595491 
682.900955  	71.555062 
684.332613  	71.840604 
685.764271  	72.519206 
687.195929  	73.112095 
688.627587  	73.469586 
690.059246  	73.804847 
691.490904  	74.217724 
692.922562  	74.763293 
694.354220  	75.430575 
695.785878  	75.823880 
697.217537  	75.845099 
698.649195  	75.937438 
700.080853  	76.024385 
701.512511  	75.922964 
702.944169  	75.910623 
704.375827  	75.812790 
705.807486  	75.370543 
707.239144  	75.071516 
708.670802  	75.327792 
710.102460  	75.924607 
711.534118  	76.566251 
712.965777  	77.089899 
714.397435  	77.387727 
715.829093  	77.453863 
717.260751  	77.452965 
718.692409  	77.563475 
720.124067  	77.713753 
721.555726  	77.746248 
722.987384  	77.706392 
724.419042  	77.683887 
725.850700  	77.668010 
727.282358  	77.648620 
728.714017  	77.657181 
730.145675  	77.713110 
731.577333  	77.753325 
733.008991  	77.685669 
734.440649  	77.540269 
735.872308  	77.337547 
737.303966  	76.959851 
738.735624  	76.319069 
740.167282  	75.377333 
741.598940  	74.215788 
743.030598  	73.089091 
744.462257  	71.996315 
745.893915  	70.880305 
747.325573  	70.033161 
748.757231  	69.543443 
750.188889  	69.325188 
751.620548  	69.438733 
753.052206  	69.761272 
754.483864  	70.040816 
755.915522  	69.997777 
757.347180  	69.447760 
758.778839  	68.617663 
760.210497  	67.638823 
761.642155  	66.240424 
763.073813  	64.251954 
764.505471  	61.669022 
765.937129  	58.835115 
767.368788  	56.408915 
768.800446  	54.766639 
770.232104  	54.233473 
771.663762  	55.210169 
773.095420  	57.691300 
774.527079  	61.000494 
775.958737  	64.451206 
777.390395  	67.816654 
778.822053  	70.716654 
780.253711  	72.854733 
781.685369  	74.559852 
783.117028  	76.435268 
784.548686  	78.762823 
785.980344  	81.215421 
787.412002  	83.318950 
788.843660  	84.931519 
790.275319  	85.988980 
791.706977  	86.521345 
793.138635  	86.732342 
794.570293  	86.630169 
796.001951  	86.110984 
797.433610  	85.281725 
798.865268  	84.152425 
800.296926  	82.699999 
801.728584  	81.069523 
803.160242  	79.142837 
804.591900  	76.961936 
806.023559  	74.887717 
807.455217  	72.803641 
808.886875  	70.590489 
810.318533  	68.558283 
811.750191  	66.905941 
813.181850  	65.560728 
814.613508  	64.475217 
816.045166  	64.075999 
817.476824  	64.815908 
818.908482  	66.615633 
820.340141  	69.204781 
821.771799  	72.085167 
823.203457  	74.638038 
824.635115  	76.679972 
826.066773  	78.280457 
827.498431  	79.394727 
828.930090  	80.211648 
830.361748  	80.906157 
831.793406  	81.266584 
833.225064  	81.361238 
834.656722  	81.517441 
836.088381  	81.665879 
837.520039  	81.579723 
838.951697  	81.230748 
840.383355  	80.634952 
841.815013  	79.830484 
843.246671  	79.008598 
844.678330  	78.332660 
846.109988  	77.806607 
847.541646  	77.491007 
848.973304  	77.516536 
850.404962  	77.982788 
851.836621  	78.823968 
853.268279  	79.782906 
854.699937  	80.743293 
856.131595  	81.697745 
857.563253  	82.449913 
858.994912  	82.868424 
860.426570  	83.146703 
861.858228  	83.531387 
863.289886  	84.183637 
864.721544  	85.192407 
866.153202  	86.557899 
867.584861  	88.237208 
869.016519  	90.091540 
870.448177  	91.904465 
871.879835  	93.518881 
873.311493  	94.761338 
874.743152  	95.588645 
876.174810  	96.166571 
877.606468  	96.510258 
879.038126  	96.664074 
880.469784  	96.754105 
881.901443  	96.742557 
883.333101  	96.686326 
884.764759  	96.637445 
886.196417  	96.498367 
887.628075  	96.279959 
889.059733  	96.024769 
890.491392  	95.780218 
891.923050  	95.579747 
893.354708  	95.349310 
894.786366  	95.116902 
896.218024  	94.930983 
897.649683  	94.697950 
899.081341  	94.374600 
900.512999  	94.001499 
901.944657  	93.629236 
903.376315  	93.226326 
904.807973  	92.649265 
906.239632  	91.861609 
907.671290  	90.952968 
909.102948  	89.911181 
910.534606  	88.658410 
911.966264  	87.397985 
913.397923  	86.549011 
914.829581  	86.292359 
916.261239  	86.623831 
917.692897  	87.324156 
919.124555  	88.030398 
920.556214  	88.750406 
921.987872  	89.456800 
923.419530  	89.781873 
924.851188  	89.801089 
926.282846  	89.773850 
927.714504  	89.510894 
929.146163  	88.994943 
930.577821  	88.411995 
932.009479  	87.751866 
933.441137  	87.109487 
934.872795  	86.590716 
936.304454  	86.027364 
937.736112  	85.261369 
939.167770  	84.453520 
940.599428  	83.840880 
942.031086  	83.343084 
943.462744  	82.799343 
944.894403  	82.235850 
946.326061  	81.685926 
947.757719  	81.135515 
949.189377  	80.570367 
950.621035  	80.009190 
952.052694  	79.440126 
953.484352  	78.789831 
954.916010  	78.168781 
956.347668  	77.682033 
957.779326  	77.244642 
959.210985  	76.928582 
960.642643  	76.781035 
962.074301  	76.710279 
963.505959  	76.790645 
964.937617  	77.031946 
966.369275  	77.302408 
967.800934  	77.551560 
969.232592  	77.740136 
970.664250  	77.810966 
972.095908  	77.679523 
973.527566  	77.320301 
974.959225  	76.887104 
976.390883  	76.422640 
977.822541  	75.861678 
979.254199  	75.314416 
980.685857  	74.920939 
982.117516  	74.771725 
983.549174  	74.929786 
984.980832  	75.389165 
986.412490  	76.005129 
987.844148  	76.526275 
989.275806  	76.911127 
990.707465  	77.208735 
992.139123  	77.305552 
993.570781  	77.199610 
995.002439  	76.954585 
996.434097  	76.555989 
997.865756  	76.105740 
999.297414  	75.616099 
1000.729072  	75.015532 
1002.160730  	74.353436 
1003.592388  	73.581651 
1005.024046  	72.695270 
1006.455705  	71.748584 
1007.887363  	70.665388 
1009.319021  	69.458606 
1010.750679  	68.047229 
1012.182337  	66.273029 
1013.613996  	64.003852 
1015.045654  	60.904744 
1016.477312  	57.586336 
1017.908970  	56.000299 
1019.340628  	57.366086 
1020.772287  	60.924261 
1022.203945  	64.691153 
1023.635603  	67.341393 
1025.067261  	68.581607 
1026.498919  	68.451578 
1027.930577  	67.429671 
1029.362236  	66.119636 
1030.793894  	64.596869 
1032.225552  	63.001714 
1033.657210  	61.578872 
1035.088868  	60.293056 
1036.520527  	59.210534 
1037.952185  	58.281908 
1039.383843  	57.356903 
1040.815501  	56.395438 
1042.247159  	55.253767 
1043.678818  	53.914943 
1045.110476  	52.354329 
1046.542134  	50.537855 
1047.973792  	48.657282 
1049.405450  	46.680070 
1050.837108  	44.697325 
1052.268767  	42.824303 
1053.700425  	40.778525 
1055.132083  	38.813102 
1056.563741  	37.099318 
1057.995399  	35.445299 
1059.427058  	34.215950 
1060.858716  	33.296251 
1062.290374  	32.519174 
1063.722032  	32.175805 
1065.153690  	31.913301 
1066.585348  	31.713349 
1068.017007  	31.744881 
1069.448665  	31.706387 
1070.880323  	31.753535 
1072.311981  	31.809060 
1073.743639  	31.789952 
1075.175298  	32.032211 
1076.606956  	32.306535 
1078.038614  	32.779674 
1079.470272  	33.802095 
1080.901930  	35.146785 
1082.333589  	37.103300 
1083.765247  	39.801439 
1085.196905  	43.009299 
1086.628563  	46.480578 
1088.060221  	49.365509 
1089.491879  	51.179732 
1090.923538  	52.022713 
1092.355196  	52.028803 
1093.786854  	51.650012 
1095.218512  	51.089390 
1096.650170  	50.331642 
1098.081829  	49.653444 
1099.513487  	48.908742 
1100.945145  	48.115166 
1102.376803  	47.566916 
1103.808461  	47.068623 
1105.240120  	46.881003 
1106.671778  	47.197681 
1108.103436  	47.676736 
1109.535094  	48.468830 
1110.966752  	49.547238 
1112.398410  	50.867828 
1113.830069  	52.711069 
1115.261727  	54.814027 
1116.693385  	56.952624 
1118.125043  	59.093389 
1119.556701  	61.113680 
1120.988360  	63.146581 
1122.420018  	65.217453 
1123.851676  	67.337237 
1125.283334  	69.641916 
1126.714992  	71.994100 
1128.146650  	74.310547 
1129.578309  	76.593278 
1131.009967  	78.733965 
1132.441625  	80.744195 
1133.873283  	82.626877 
1135.304941  	84.270177 
1136.736600  	85.696141 
1138.168258  	86.966830 
1139.599916  	87.996016 
1141.031574  	88.841734 
1142.463232  	89.619684 
1143.894891  	90.268139 
1145.326549  	90.826403 
1146.758207  	91.312832 
1148.189865  	91.699085 
1149.621523  	92.090556 
1151.053181  	92.401304 
1152.484840  	92.568683 
1153.916498  	92.714010 
1155.348156  	92.775498 
1156.779814  	92.731089 
1158.211472  	92.584985 
1159.643131  	92.270401 
1161.074789  	91.896035 
1162.506447  	91.449514 
1163.938105  	90.825813 
1165.369763  	90.073438 
1166.801421  	89.243541 
1168.233080  	88.348609 
1169.664738  	87.237262 
1171.096396  	85.885504 
1172.528054  	84.466321 
1173.959712  	82.837672 
1175.391371  	80.910047 
1176.823029  	78.729331 
1178.254687  	76.273849 
1179.686345  	73.863266 
1181.118003  	71.812718 
1182.549662  	70.212224 
1183.981320  	68.892151 
1185.412978  	67.415595 
1186.844636  	65.653290 
1188.276294  	63.590745 
1189.707952  	61.244111 
1191.139611  	58.823205 
1192.571269  	56.254555 
1194.002927  	53.557534 
1195.434585  	50.794639 
1196.866243  	47.781046 
1198.297902  	44.696680 
1199.729560  	41.608402 
1201.161218  	38.717702 
1202.592876  	36.610909 
1204.024534  	35.210924 
1205.456193  	34.546596 
1206.887851  	34.535345 
1208.319509  	34.485931 
1209.751167  	34.178293 
1211.182825  	33.291913 
1212.614483  	31.710812 
1214.046142  	30.004160 
1215.477800  	28.265424 
1216.909458  	26.859022 
1218.341116  	26.158277 
1219.772774  	25.820114 
1221.204433  	26.077183 
1222.636091  	26.780174 
1224.067749  	27.562509 
1225.499407  	28.734290 
1226.931065  	29.961517 
1228.362723  	31.189168 
1229.794382  	32.725405 
1231.226040  	34.288439 
1232.657698  	36.112667 
1234.089356  	38.233906 
1235.521014  	40.456830 
1236.952673  	43.171634 
1238.384331  	46.184025 
1239.815989  	49.353888 
1241.247647  	52.758583 
1242.679305  	55.859675 
1244.110964  	58.508224 
1245.542622  	60.592416 
1246.974280  	61.630388 
1248.405938  	61.698125 
1249.837596  	61.169144 
1251.269254  	60.585889 
1252.700913  	60.758179 
1254.132571  	61.946347 
1255.564229  	64.188720 
1256.995887  	67.316051 
1258.427545  	70.753131 
1259.859204  	74.261379 
1261.290862  	77.612644 
1262.722520  	80.502002 
1264.154178  	82.919162 
1265.585836  	84.815537 
1267.017495  	86.101741 
1268.449153  	86.918955 
1269.880811  	87.398056 
1271.312469  	87.613787 
1272.744127  	87.710191 
1274.175785  	87.735043 
1275.607444  	87.788763 
1277.039102  	87.948520 
1278.470760  	88.126395 
1279.902418  	88.371430 
1281.334076  	88.694451 
1282.765735  	88.973105 
1284.197393  	89.182842 
1285.629051  	89.243681 
1287.060709  	89.121211 
1288.492367  	88.781615 
1289.924025  	88.017477 
1291.355684  	86.857014 
1292.787342  	85.351973 
1294.219000  	83.430622 
1295.650658  	81.100474 
1297.082316  	78.251878 
1298.513975  	74.988774 
1299.945633  	71.349648 
1301.377291  	67.314738 
1302.808949  	63.314801 
1304.240607  	59.578783 
1305.672266  	56.614332 
1307.103924  	54.774248 
1308.535582  	53.886037 
1309.967240  	54.252768 
1311.398898  	55.544848 
1312.830556  	57.405665 
1314.262215  	59.702640 
1315.693873  	61.699560 
1317.125531  	63.583452 
1318.557189  	66.082171 
1319.988847  	69.463068 
1321.420506  	73.577725 
1322.852164  	77.699059 
1324.283822  	81.406850 
1325.715480  	84.568938 
1327.147138  	87.173430 
1328.578796  	89.272047 
1330.010455  	90.822586 
1331.442113  	92.005451 
1332.873771  	92.852135 
1334.305429  	93.369659 
1335.737087  	93.619422 
1337.168746  	93.571839 
1338.600404  	93.497433 
1340.032062  	93.476103 
1341.463720  	93.431333 
1342.895378  	93.474304 
1344.327037  	93.492142 
1345.758695  	93.454218 
1347.190353  	93.326803 
1348.622011  	92.954444 
1350.053669  	92.486920 
1351.485327  	91.901857 
1352.916986  	91.136297 
1354.348644  	90.385858 
1355.780302  	89.654621 
1357.211960  	89.042339 
1358.643618  	88.547566 
1360.075277  	88.034877 
1361.506935  	87.636257 
1362.938593  	87.351396 
1364.370251  	87.113343 
1365.801909  	86.939418 
1367.233568  	86.810096 
1368.665226  	86.868489 
1370.096884  	87.080811 
1371.528542  	87.282144 
1372.960200  	87.575505 
1374.391858  	88.098873 
1375.823517  	88.669087 
1377.255175  	89.099880 
1378.686833  	89.596158 
1380.118491  	90.216994 
1381.550149  	90.782529 
1382.981808  	91.216701 
1384.413466  	91.396570 
1385.845124  	91.399232 
1387.276782  	91.459806 
1388.708440  	91.615077 
1390.140098  	91.746431 
1391.571757  	91.942069 
1393.003415  	92.096007 
1394.435073  	92.032830 
1395.866731  	91.752732 
1397.298389  	91.189700 
1398.730048  	90.269652 
1400.161706  	89.066001 
1401.593364  	87.489835 
1403.025022  	85.324851 
1404.456680  	82.256438 
1405.888339  	77.811483 
1407.319997  	72.444901 
1408.751655  	66.542121 
1410.183313  	60.158596 
1411.614971  	55.276201 
1413.046629  	53.452820 
1414.478288  	54.517714 
1415.909946  	59.133132 
1417.341604  	65.309739 
1418.773262  	72.741317 
1420.204920  	82.453526 
1421.636579  	87.623052 
1423.068237  	90.494924 
1424.499895  	93.165544 
1425.931553  	93.705927 
1427.363211  	93.374409 
1428.794870  	92.494160 
1430.226528  	90.751225 
1431.658186  	89.437601 
1433.089844  	88.277534 
1434.521502  	87.410278 
1435.953160  	87.345506 
1437.384819  	88.181364 
1438.816477  	89.077962 
1440.248135  	89.758296 
1441.679793  	90.106844 
1443.111451  	89.965677 
1444.543110  	89.295282 
1445.974768  	88.527854 
1447.406426  	88.284375 
1448.838084  	88.412957 
1450.269742  	88.625404 
1451.701400  	88.851796 
1453.133059  	88.859085 
1454.564717  	88.704863 
1455.996375  	88.469038 
1457.428033  	88.466977 
1458.859691  	88.887860 
1460.291350  	88.721728 
1461.723008  	88.156525 
1463.154666  	87.492600 
1464.586324  	86.620722 
1466.017982  	85.868248 
1467.449641  	85.137349 
1468.881299  	84.252185 
1470.312957  	83.455119 
1471.744615  	82.371308 
1473.176273  	81.192536 
1474.607931  	80.288553 
1476.039590  	78.830010 
1477.471248  	77.793439 
1478.902906  	77.799331 
1480.334564  	78.630455 
1481.766222  	80.645639 
1483.197881  	82.421239 
1484.629539  	83.782928 
1486.061197  	84.902331 
1487.492855  	85.278041 
1488.924513  	85.811388 
1490.356172  	85.785374 
1491.787830  	85.016116 
1493.219488  	84.364153 
1494.651146  	82.850303 
1496.082804  	81.042489 
1497.514462  	79.324972 
1498.946121  	76.556909 
1500.377779  	74.215802 
1501.809437  	71.569879 
1503.241095  	68.200921 
1504.672753  	65.551110 
1506.104412  	61.996803 
1507.536070  	56.547037 
1508.967728  	53.432554 
1510.399386  	49.499513 
1511.831044  	46.289680 
1513.262702  	43.966093 
1514.694361  	41.514306 
1516.126019  	40.508945 
1517.557677  	39.129307 
1518.989335  	37.064905 
1520.420993  	36.198258 
1521.852652  	33.729225 
1523.284310  	32.364945 
1524.715968  	31.894098 
1526.147626  	30.793117 
1527.579284  	31.608132 
1529.010943  	32.208077 
1530.442601  	32.835784 
1531.874259  	34.512938 
1533.305917  	35.968947 
1534.737575  	39.363422 
1536.169233  	41.933139 
1537.600892  	43.333077 
1539.032550  	47.174294 
1540.464208  	52.170406 
1541.895866  	55.916125 
1543.327524  	60.249436 
1544.759183  	63.807684 
1546.190841  	68.591347 
1547.622499  	72.364149 
1549.054157  	75.264374 
1550.485815  	79.881377 
1551.917473  	83.245151 
1553.349132  	85.619365 
1554.780790  	89.071112 
1556.212448  	91.181633 
1557.644106  	92.323900 
1559.075764  	94.673379 
1560.507423  	96.772868 
1561.939081  	97.398485 
1563.370739  	97.772654 
1564.802397  	98.186228 
1566.234055  	98.703944 
1567.665714  	98.977575 
1569.097372  	99.440889 
1570.529030  	100.338911 
1571.960688  	100.878745 
1573.392346  	101.122556 
1574.824004  	101.192252 
1576.255663  	101.107949 
1577.687321  	100.882263 
1579.118979  	100.471861 
1580.550637  	99.711587 
1581.982295  	98.537412 
1583.413954  	96.965625 
1584.845612  	94.613736 
1586.277270  	91.647883 
1587.708928  	87.962319 
1589.140586  	83.253732 
1590.572245  	78.591161 
1592.003903  	73.929197 
1593.435561  	70.027284 
1594.867219  	67.994467 
1596.298877  	66.867168 
1597.730535  	67.538407 
1599.162194  	69.439386 
1600.593852  	71.594135 
1602.025510  	74.636053 
1603.457168  	77.389901 
1604.888826  	79.589904 
1606.320485  	81.506068 
1607.752143  	82.504569 
1609.183801  	83.172956 
1610.615459  	83.548573 
1612.047117  	83.656874 
1613.478775  	84.410868 
1614.910434  	85.154174 
1616.342092  	86.731870 
1617.773750  	90.126545 
1619.205408  	92.224233 
1620.637066  	94.220414 
1622.068725  	96.222742 
1623.500383  	97.517719 
1624.932041  	98.839949 
1626.363699  	99.344374 
1627.795357  	99.338511 
1629.227016  	99.714783 
1630.658674  	99.357921 
1632.090332  	98.702211 
1633.521990  	98.278595 
1634.953648  	97.261365 
1636.385306  	96.953649 
1637.816965  	97.681941 
1639.248623  	98.120703 
1640.680281  	99.239469 
1642.111939  	99.939982 
1643.543597  	100.182786 
1644.975256  	100.595183 
1646.406914  	100.329675 
1647.838572  	100.787296 
1649.270230  	101.082980 
1650.701888  	100.481829 
1652.133547  	100.536841 
1653.565205  	100.278104 
1654.996863  	99.653297 
1656.428521  	99.728375 
1657.860179  	98.898452 
1659.291837  	98.370046 
1660.723496  	98.082711 
1662.155154  	96.945193 
1663.586812  	96.562543 
1665.018470  	95.889106 
1666.450128  	94.755799 
1667.881787  	94.354175 
1669.313445  	92.933259 
1670.745103  	91.590753 
1672.176761  	90.836943 
1673.608419  	88.734453 
1675.040077  	87.216150 
1676.471736  	85.185979 
1677.903394  	82.381394 
1679.335052  	80.532418 
1680.766710  	77.195920 
1682.198368  	73.878667 
1683.630027  	71.935205 
1685.061685  	66.018084 
1686.493343  	62.576045 
1687.925001  	59.543780 
1689.356659  	54.535876 
1690.788318  	50.709536 
1692.219976  	46.622651 
1693.651634  	42.420633 
1695.083292  	40.099148 
1696.514950  	37.142098 
1697.946608  	35.294984 
1699.378267  	35.698780 
1700.809925  	38.438214 
1702.241583  	41.348420 
1703.673241  	43.638569 
1705.104899  	47.036461 
1706.536558  	51.350636 
1707.968216  	54.865799 
1709.399874  	57.770823 
1710.831532  	60.690901 
1712.263190  	63.467499 
1713.694849  	65.514863 
1715.126507  	67.802231 
1716.558165  	69.982825 
1717.989823  	71.563374 
1719.421481  	73.739436 
1720.853139  	74.544964 
1722.284798  	74.667920 
1723.716456  	75.039299 
1725.148114  	74.793505 
1726.579772  	74.510507 
1728.011430  	74.659053 
1729.443089  	74.865513 
1730.874747  	76.042449 
1732.306405  	77.418167 
1733.738063  	79.142324 
1735.169721  	83.878476 
1736.601379  	86.291688 
1738.033038  	88.296109 
1739.464696  	91.868827 
1740.896354  	94.721262 
1742.328012  	97.171391 
1743.759670  	99.582890 
1745.191329  	101.014603 
1746.622987  	102.771659 
1748.054645  	103.876788 
1749.486303  	104.592341 
1750.917961  	105.910459 
1752.349620  	106.144523 
1753.781278  	106.656425 
1755.212936  	107.157186 
1756.644594  	106.999955 
1758.076252  	107.625453 
1759.507910  	107.775363 
1760.939569  	107.582274 
1762.371227  	108.174222 
1763.802885  	108.082492 
1765.234543  	108.119476 
1766.666201  	108.354965 
1768.097860  	108.030314 
1769.529518  	108.359029 
1770.961176  	108.384486 
1772.392834  	108.015515 
1773.824492  	108.643717 
1775.256150  	108.428697 
1776.687809  	108.311453 
1778.119467  	108.631262 
1779.551125  	108.307647 
1780.982783  	108.474479 
1782.414441  	108.704044 
1783.846100  	108.432549 
1785.277758  	108.670433 
1786.709416  	108.557451 
1788.141074  	108.446714 
1789.572732  	108.688056 
1791.004391  	108.306038 
1792.436049  	108.421263 
1793.867707  	108.780626 
1795.299365  	108.491569 
1796.731023  	108.795390 
1798.162681  	108.877708 
1799.594340  	108.678666 
1801.025998  	108.970697 
1802.457656  	108.818316 
1803.889314  	108.897934 
1805.320972  	109.112726 
1806.752631  	108.830708 
1808.184289  	109.042512 
1809.615947  	109.125481 
1811.047605  	108.881486 
1812.479263  	109.201797 
1813.910922  	109.137470 
1815.342580  	109.134122 
1816.774238  	109.454287 
1818.205896  	109.253735 
1819.637554  	109.371829 
1821.069212  	109.484910 
1822.500871  	109.268416 
1823.932529  	109.493558 
1825.364187  	109.419297 
1826.795845  	109.441631 
1828.227503  	109.751199 
1829.659162  	109.436484 
1831.090820  	109.566641 
1832.522478  	109.741708 
1833.954136  	109.537659 
1835.385794  	109.866524 
1836.817452  	109.841222 
1838.249111  	109.733437 
1839.680769  	110.093859 
1841.112427  	109.833271 
1842.544085  	109.799390 
1843.975743  	110.158087 
1845.407402  	109.988322 
1846.839060  	110.227210 
1848.270718  	110.193872 
1849.702376  	110.019749 
1851.134034  	110.248794 
1852.565693  	110.019382 
1853.997351  	110.137114 
1855.429009  	110.425019 
1856.860667  	110.073274 
1858.292325  	110.252143 
1859.723983  	110.318668 
1861.155642  	110.112085 
1862.587300  	110.496745 
1864.018958  	110.316404 
1865.450616  	110.133178 
1866.882274  	110.302073 
1868.313933  	109.833077 
1869.745591  	110.074443 
1871.177249  	110.318270 
1872.608907  	109.958132 
1874.040565  	110.222027 
1875.472224  	110.132892 
1876.903882  	109.920393 
1878.335540  	110.273071 
1879.767198  	110.092686 
1881.198856  	110.097183 
1882.630514  	110.209722 
1884.062173  	109.888653 
1885.493831  	110.105998 
1886.925489  	110.030280 
1888.357147  	109.790235 
1889.788805  	110.088419 
1891.220464  	109.755892 
1892.652122  	109.656041 
1894.083780  	109.741083 
1895.515438  	109.284614 
1896.947096  	109.493471 
1898.378754  	109.571181 
1899.810413  	109.337711 
1901.242071  	109.550208 
1902.673729  	109.157934 
1904.105387  	109.064431 
1905.537045  	109.466077 
1906.968704  	109.172921 
1908.400362  	109.328044 
1909.832020  	109.527705 
1911.263678  	109.422789 
1912.695336  	109.916328 
1914.126995  	109.805952 
1915.558653  	109.721881 
1916.990311  	110.089406 
1918.421969  	109.643402 
1919.853627  	109.877483 
1921.285285  	110.247431 
1922.716944  	109.922557 
1924.148602  	110.185134 
1925.580260  	109.970339 
1927.011918  	109.863891 
1928.443576  	110.512803 
1929.875235  	110.158565 
1931.306893  	110.144388 
1932.738551  	110.465082 
1934.170209  	109.995959 
1935.601867  	110.455722 
1937.033525  	110.594813 
1938.465184  	110.026445 
1939.896842  	110.227868 
1941.328500  	109.952023 
1942.760158  	110.133771 
1944.191816  	110.609904 
1945.623475  	109.945491 
1947.055133  	110.299180 
1948.486791  	110.432933 
1949.918449  	109.780199 
1951.350107  	110.274297 
1952.781766  	110.131185 
1954.213424  	110.081695 
1955.645082  	110.743621 
1957.076740  	110.107741 
1958.508398  	110.119837 
1959.940056  	110.060150 
1961.371715  	109.283094 
1962.803373  	110.173471 
1964.235031  	110.020248 
1965.666689  	109.346100 
1967.098347  	110.144278 
1968.530006  	109.680822 
1969.961664  	109.553578 
1971.393322  	109.848778 
1972.824980  	109.481192 
1974.256638  	110.209603 
1975.688297  	109.415836 
1977.119955  	108.404163 
1978.551613  	109.599241 
1979.983271  	109.686794 
1981.414929  	110.038193 
1982.846587  	110.530436 
1984.278246  	110.003056 
1985.709904  	110.652380 
1987.141562  	110.397866 
1988.573220  	109.693887 
1990.004878  	110.463388 
1991.436537  	109.941083 
1992.868195  	109.855477 
1994.299853  	110.605038 
1995.731511  	109.896024 
1997.163169  	110.110618 
1998.594827  	110.262400 
2000.026486  	109.875255 
2001.458144  	110.712730 
2002.889802  	110.043751 
2004.321460  	109.456281 
2005.753118  	110.455088 
2007.184777  	109.859008 
2008.616435  	109.767730 
2010.048093  	110.027035 
2011.479751  	109.333576 
2012.911409  	109.901663 
2014.343068  	109.736690 
2015.774726  	109.416736 
2017.206384  	109.973305 
2018.638042  	108.982845 
2020.069700  	109.133541 
2021.501358  	109.802680 
2022.933017  	109.296216 
2024.364675  	110.204436 
2025.796333  	109.908472 
2027.227991  	108.970379 
2028.659649  	109.897934 
2030.091308  	109.565175 
2031.522966  	109.586405 
2032.954624  	110.173972 
2034.386282  	109.325711 
2035.817940  	109.852878 
2037.249599  	109.833872 
2038.681257  	108.999475 
2040.112915  	109.685952 
2041.544573  	109.501856 
2042.976231  	109.677793 
2044.407889  	110.462273 
2045.839548  	109.658657 
2047.271206  	109.960951 
2048.702864  	110.590971 
2050.134522  	110.152830 
2051.566180  	110.370188 
2052.997839  	109.950930 
2054.429497  	109.702362 
2055.861155  	110.381099 
2057.292813  	110.326196 
2058.724471  	110.685609 
2060.156129  	110.957468 
2061.587788  	110.477963 
2063.019446  	110.972228 
2064.451104  	111.058836 
2065.882762  	110.703637 
2067.314420  	111.051262 
2068.746079  	110.832846 
2070.177737  	110.830282 
2071.609395  	110.878699 
2073.041053  	110.448357 
2074.472711  	110.941811 
2075.904370  	110.960366 
2077.336028  	110.503691 
2078.767686  	111.049796 
2080.199344  	111.044108 
2081.631002  	110.888113 
2083.062660  	111.173050 
2084.494319  	110.839429 
2085.925977  	110.712818 
2087.357635  	110.602816 
2088.789293  	110.387006 
2090.220951  	110.793469 
2091.652610  	110.748719 
2093.084268  	110.688304 
2094.515926  	110.986638 
2095.947584  	110.741566 
2097.379242  	111.042538 
2098.810901  	111.309187 
2100.242559  	110.825755 
2101.674217  	110.892973 
2103.105875  	110.787348 
2104.537533  	110.754542 
2105.969191  	111.323821 
2107.400850  	111.061689 
2108.832508  	110.840683 
2110.264166  	111.024525 
2111.695824  	110.684901 
2113.127482  	110.655632 
2114.559141  	110.743036 
2115.990799  	110.825497 
2117.422457  	111.183522 
2118.854115  	110.986522 
2120.285773  	110.904375 
2121.717431  	110.963196 
2123.149090  	110.599137 
2124.580748  	110.884619 
2126.012406  	110.961016 
2127.444064  	110.440710 
2128.875722  	110.652788 
2130.307381  	110.749082 
2131.739039  	110.638237 
2133.170697  	110.637472 
2134.602355  	110.219512 
2136.034013  	110.401610 
2137.465672  	110.323659 
2138.897330  	109.861387 
2140.328988  	110.572070 
2141.760646  	110.557212 
2143.192304  	109.952524 
2144.623962  	110.000674 
2146.055621  	109.548204 
2147.487279  	109.947804 
2148.918937  	110.442763 
2150.350595  	109.699746 
2151.782253  	110.026059 
2153.213912  	110.024555 
2154.645570  	109.381879 
2156.077228  	109.903440 
2157.508886  	109.571577 
2158.940544  	109.296061 
2160.372202  	109.542066 
2161.803861  	109.155116 
2163.235519  	109.934821 
2164.667177  	110.082331 
2166.098835  	109.715032 
2167.530493  	110.364045 
2168.962152  	110.219394 
2170.393810  	110.467573 
2171.825468  	110.751354 
2173.257126  	109.808582 
2174.688784  	110.281176 
2176.120443  	110.660834 
2177.552101  	109.878610 
2178.983759  	110.264200 
2180.415417  	110.240500 
2181.847075  	110.052860 
2183.278733  	110.440701 
2184.710392  	109.922012 
2186.142050  	110.021141 
2187.573708  	110.172455 
2189.005366  	109.622315 
2190.437024  	110.164464 
2191.868683  	110.540147 
2193.300341  	110.618995 
2194.731999  	110.896574 
2196.163657  	110.083155 
2197.595315  	109.940631 
2199.026974  	110.507195 
2200.458632  	110.326714 
2201.890290  	110.670025 
2203.321948  	110.813403 
2204.753606  	110.477630 
2206.185264  	110.701454 
2207.616923  	110.534156 
2209.048581  	110.578066 
2210.480239  	110.929071 
2211.911897  	110.628539 
2213.343555  	110.714962 
2214.775214  	110.844161 
2216.206872  	110.759481 
2217.638530  	111.031354 
2219.070188  	110.827305 
2220.501846  	110.668716 
2221.933504  	110.688700 
2223.365163  	110.539984 
2224.796821  	111.075667 
2226.228479  	111.081756 
2227.660137  	110.597497 
2229.091795  	111.103946 
2230.523454  	111.253036 
2231.955112  	111.101547 
2233.386770  	111.337506 
2234.818428  	111.139549 
2236.250086  	111.237496 
2237.681745  	111.341461 
2239.113403  	110.922867 
2240.545061  	111.044986 
2241.976719  	111.200045 
2243.408377  	111.160947 
2244.840035  	111.205468 
2246.271694  	110.980948 
2247.703352  	111.157743 
2249.135010  	111.242707 
2250.566668  	110.924504 
2251.998326  	111.226825 
2253.429985  	111.234298 
2254.861643  	110.858071 
2256.293301  	110.949221 
2257.724959  	110.798220 
2259.156617  	110.842977 
2260.588276  	111.137690 
2262.019934  	110.958604 
2263.451592  	111.020400 
2264.883250  	111.080760 
2266.314908  	110.966274 
2267.746566  	111.232764 
2269.178225  	111.211128 
2270.609883  	111.030201 
2272.041541  	110.947761 
2273.473199  	110.742608 
2274.904857  	111.031796 
2276.336516  	111.297896 
2277.768174  	111.175902 
2279.199832  	111.322510 
2280.631490  	111.220380 
2282.063148  	110.975663 
2283.494806  	111.092157 
2284.926465  	111.136790 
2286.358123  	111.175386 
2287.789781  	111.107387 
2289.221439  	111.000080 
2290.653097  	111.205587 
2292.084756  	111.084105 
2293.516414  	110.835378 
2294.948072  	110.939828 
2296.379730  	110.783962 
2297.811388  	110.663223 
2299.243047  	110.790267 
2300.674705  	110.621639 
2302.106363  	110.450329 
2303.538021  	110.373067 
2304.969679  	110.253278 
2306.401337  	110.182015 
2307.832996  	109.954737 
2309.264654  	109.824246 
2310.696312  	109.811506 
2312.127970  	109.570803 
2313.559628  	109.465241 
2314.991287  	109.463906 
2316.422945  	109.338346 
2317.854603  	109.188415 
2319.286261  	108.812460 
2320.717919  	108.476065 
2322.149577  	108.336617 
2323.581236  	108.174459 
2325.012894  	108.207533 
2326.444552  	108.095847 
2327.876210  	107.676510 
2329.307868  	107.410276 
2330.739527  	107.197932 
2332.171185  	107.167756 
2333.602843  	107.380771 
2335.034501  	107.318716 
2336.466159  	107.177477 
2337.897818  	107.056809 
2339.329476  	106.889027 
2340.761134  	106.861869 
2342.192792  	106.690391 
2343.624450  	106.669267 
2345.056108  	107.009296 
2346.487767  	107.457992 
2347.919425  	108.306658 
2349.351083  	108.747344 
2350.782741  	108.076257 
2352.214399  	107.195780 
2353.646058  	106.681687 
2355.077716  	106.106071 
2356.509374  	105.788200 
2357.941032  	105.524949 
2359.372690  	105.325867 
2360.804349  	105.522188 
2362.236007  	105.529816 
2363.667665  	105.654050 
2365.099323  	106.034818 
2366.530981  	106.243274 
2367.962639  	106.621475 
2369.394298  	107.007413 
2370.825956  	107.390976 
2372.257614  	107.939331 
2373.689272  	108.265583 
2375.120930  	108.642135 
2376.552589  	109.105240 
2377.984247  	109.449431 
2379.415905  	109.991044 
2380.847563  	110.470411 
2382.279221  	110.787143 
2383.710879  	111.194417 
2385.142538  	111.418517 
2386.574196  	111.540279 
2388.005854  	111.639994 
2389.437512  	111.555716 
2390.869170  	111.653812 
2392.300829  	111.815006 
2393.732487  	111.721377 
2395.164145  	111.704164 
2396.595803  	111.764748 
2398.027461  	111.777117 
2399.459120  	111.777097 
2400.890778  	111.729082 
2402.322436  	111.754181 
2403.754094  	111.719526 
2405.185752  	111.646126 
2406.617410  	111.772427 
2408.049069  	111.823838 
2409.480727  	111.796573 
2410.912385  	111.796150 
2412.344043  	111.679239 
2413.775701  	111.705518 
2415.207360  	111.777736 
2416.639018  	111.714751 
2418.070676  	111.807791 
2419.502334  	111.875357 
2420.933992  	111.818148 
2422.365651  	111.768787 
2423.797309  	111.664110 
2425.228967  	111.751485 
2426.660625  	111.871751 
2428.092283  	111.793108 
2429.523941  	111.814524 
2430.955600  	111.724933 
2432.387258  	111.599393 
2433.818916  	111.797077 
2435.250574  	111.881653 
2436.682232  	111.818403 
2438.113891  	111.835712 
2439.545549  	111.803254 
2440.977207  	111.824506 
2442.408865  	111.777932 
2443.840523  	111.694000 
2445.272181  	111.774382 
2446.703840  	111.729433 
2448.135498  	111.714875 
2449.567156  	111.887498 
2450.998814  	111.936042 
2452.430472  	111.954433 
2453.862131  	111.920175 
2455.293789  	111.880751 
2456.725447  	111.999181 
2458.157105  	111.913778 
2459.588763  	111.796705 
2461.020422  	111.885596 
2462.452080  	111.859361 
2463.883738  	111.888103 
2465.315396  	111.904338 
2466.747054  	111.748085 
2468.178712  	111.777989 
2469.610371  	111.761276 
2471.042029  	111.643303 
2472.473687  	111.732128 
2473.905345  	111.707717 
2475.337003  	111.613255 
2476.768662  	111.652257 
2478.200320  	111.653101 
2479.631978  	111.688017 
2481.063636  	111.677840 
2482.495294  	111.609555 
2483.926953  	111.609497 
2485.358611  	111.555403 
2486.790269  	111.614644 
2488.221927  	111.714204 
2489.653585  	111.658944 
2491.085243  	111.759878 
2492.516902  	111.837154 
2493.948560  	111.734004 
2495.380218  	111.707673 
2496.811876  	111.627700 
2498.243534  	111.666989 
2499.675193  	111.866440 
2501.106851  	111.828454 
2502.538509  	111.793896 
2503.970167  	111.849467 
2505.401825  	111.799853 
2506.833483  	111.781278 
2508.265142  	111.724144 
2509.696800  	111.714273 
2511.128458  	111.805576 
2512.560116  	111.802308 
2513.991774  	111.890150 
2515.423433  	111.972030 
2516.855091  	111.881543 
2518.286749  	111.832269 
2519.718407  	111.768830 
2521.150065  	111.825300 
2522.581724  	111.956764 
2524.013382  	111.843806 
2525.445040  	111.854142 
2526.876698  	111.987677 
2528.308356  	111.974596 
2529.740014  	112.012352 
2531.171673  	111.922289 
2532.603331  	111.865969 
2534.034989  	112.027116 
2535.466647  	111.950626 
2536.898305  	111.932241 
2538.329964  	112.047152 
2539.761622  	111.882101 
2541.193280  	111.866311 
2542.624938  	111.930431 
2544.056596  	111.804495 
2545.488254  	111.850384 
2546.919913  	111.895713 
2548.351571  	111.892969 
2549.783229  	111.941282 
2551.214887  	111.813188 
2552.646545  	111.784184 
2554.078204  	111.839624 
2555.509862  	111.757894 
2556.941520  	111.733690 
2558.373178  	111.627975 
2559.804836  	111.607214 
2561.236495  	111.814891 
2562.668153  	111.800230 
2564.099811  	111.750729 
2565.531469  	111.767592 
2566.963127  	111.638314 
2568.394785  	111.688271 
2569.826444  	111.803572 
2571.258102  	111.804162 
2572.689760  	111.840039 
2574.121418  	111.734186 
2575.553076  	111.666182 
2576.984735  	111.727929 
2578.416393  	111.691516 
2579.848051  	111.774578 
2581.279709  	111.851347 
2582.711367  	111.764973 
2584.143026  	111.791357 
2585.574684  	111.795031 
2587.006342  	111.722594 
2588.438000  	111.647942 
2589.869658  	111.549812 
2591.301316  	111.631882 
2592.732975  	111.667492 
2594.164633  	111.564538 
2595.596291  	111.671293 
2597.027949  	111.738712 
2598.459607  	111.702248 
2599.891266  	111.794757 
2601.322924  	111.806831 
2602.754582  	111.767682 
2604.186240  	111.728437 
2605.617898  	111.628790 
2607.049556  	111.627897 
2608.481215  	111.613153 
2609.912873  	111.610471 
2611.344531  	111.754608 
2612.776189  	111.801856 
2614.207847  	111.778356 
2615.639506  	111.765258 
2617.071164  	111.685817 
2618.502822  	111.650438 
2619.934480  	111.598241 
2621.366138  	111.567267 
2622.797797  	111.676254 
2624.229455  	111.721865 
2625.661113  	111.710500 
2627.092771  	111.718256 
2628.524429  	111.687456 
2629.956087  	111.670461 
2631.387746  	111.607919 
2632.819404  	111.570544 
2634.251062  	111.604353 
2635.682720  	111.546360 
2637.114378  	111.557953 
2638.546037  	111.624336 
2639.977695  	111.567133 
2641.409353  	111.578038 
2642.841011  	111.558470 
2644.272669  	111.438072 
2645.704328  	111.464735 
2647.135986  	111.517570 
2648.567644  	111.530921 
2649.999302  	111.541741 
2651.430960  	111.454659 
2652.862618  	111.427449 
2654.294277  	111.440697 
2655.725935  	111.392849 
2657.157593  	111.409503 
2658.589251  	111.371941 
2660.020909  	111.282926 
2661.452568  	111.256903 
2662.884226  	111.169076 
2664.315884  	111.127475 
2665.747542  	111.151808 
2667.179200  	111.082985 
2668.610858  	111.042168 
2670.042517  	111.024600 
2671.474175  	111.003325 
2672.905833  	111.017867 
2674.337491  	110.929686 
2675.769149  	110.871330 
2677.200808  	110.905521 
2678.632466  	110.848111 
2680.064124  	110.811838 
2681.495782  	110.769086 
2682.927440  	110.655953 
2684.359099  	110.650128 
2685.790757  	110.627066 
2687.222415  	110.537482 
2688.654073  	110.512133 
2690.085731  	110.454377 
2691.517389  	110.383317 
2692.949048  	110.322231 
2694.380706  	110.236959 
2695.812364  	110.203412 
2697.244022  	110.144299 
2698.675680  	110.066484 
2700.107339  	110.030809 
2701.538997  	109.962541 
2702.970655  	109.940090 
2704.402313  	109.916237 
2705.833971  	109.828221 
2707.265630  	109.813020 
2708.697288  	109.760570 
2710.128946  	109.668507 
2711.560604  	109.643752 
2712.992262  	109.552915 
2714.423920  	109.504978 
2715.855579  	109.520187 
2717.287237  	109.433215 
2718.718895  	109.395839 
2720.150553  	109.357022 
2721.582211  	109.237011 
2723.013870  	109.212754 
2724.445528  	109.160902 
2725.877186  	109.026816 
2727.308844  	108.918902 
2728.740502  	108.806711 
2730.172160  	108.757476 
2731.603819  	108.691895 
2733.035477  	108.567666 
2734.467135  	108.541592 
2735.898793  	108.493611 
2737.330451  	108.431697 
2738.762110  	108.446697 
2740.193768  	108.360369 
2741.625426  	108.273058 
2743.057084  	108.283941 
2744.488742  	108.282417 
2745.920401  	108.298869 
2747.352059  	108.252031 
2748.783717  	108.188837 
2750.215375  	108.221713 
2751.647033  	108.176180 
2753.078691  	108.136966 
2754.510350  	108.172165 
2755.942008  	108.117976 
2757.373666  	108.098497 
2758.805324  	108.096538 
2760.236982  	108.023209 
2761.668641  	108.011118 
2763.100299  	107.960686 
2764.531957  	107.876332 
2765.963615  	107.876460 
2767.395273  	107.830774 
2768.826931  	107.746927 
2770.258590  	107.643771 
2771.690248  	107.510187 
2773.121906  	107.453587 
2774.553564  	107.360040 
2775.985222  	107.188193 
2777.416881  	107.037051 
2778.848539  	106.849143 
2780.280197  	106.665975 
2781.711855  	106.457214 
2783.143513  	106.150455 
2784.575172  	105.877627 
2786.006830  	105.596155 
2787.438488  	105.238118 
2788.870146  	104.880605 
2790.301804  	104.536935 
2791.733462  	104.239300 
2793.165121  	103.919884 
2794.596779  	103.613793 
2796.028437  	103.511154 
2797.460095  	103.489871 
2798.891753  	103.516673 
2800.323412  	103.682852 
2801.755070  	103.822004 
2803.186728  	104.001338 
2804.618386  	104.282647 
2806.050044  	104.503621 
2807.481703  	104.748544 
2808.913361  	104.980888 
2810.345019  	105.129658 
2811.776677  	105.284025 
2813.208335  	105.295282 
2814.639993  	105.230328 
2816.071652  	105.204288 
2817.503310  	104.997760 
2818.934968  	104.700983 
2820.366626  	104.405559 
2821.798284  	104.000080 
2823.229943  	103.570741 
2824.661601  	103.056393 
2826.093259  	102.438830 
2827.524917  	101.797625 
2828.956575  	100.974225 
2830.388233  	100.059511 
2831.819892  	99.184362 
2833.251550  	98.211821 
2834.683208  	97.168922 
2836.114866  	96.025295 
2837.546524  	94.733597 
2838.978183  	93.453719 
2840.409841  	92.161033 
2841.841499  	90.763261 
2843.273157  	89.246181 
2844.704815  	87.515132 
2846.136474  	85.530481 
2847.568132  	83.436040 
2848.999790  	81.760308 
2850.431448  	81.082035 
2851.863106  	81.264668 
2853.294764  	81.757431 
2854.726423  	82.245452 
2856.158081  	82.586412 
2857.589739  	82.855637 
2859.021397  	83.183043 
2860.453055  	83.537559 
2861.884714  	83.939321 
2863.316372  	84.380577 
2864.748030  	84.857610 
2866.179688  	85.427166 
2867.611346  	85.979274 
2869.043005  	86.512682 
2870.474663  	87.165102 
2871.906321  	87.916395 
2873.337979  	88.779403 
2874.769637  	89.749064 
2876.201295  	90.760853 
2877.632954  	91.826438 
2879.064612  	92.850559 
2880.496270  	93.766977 
2881.927928  	94.568618 
2883.359586  	95.166208 
2884.791245  	95.595070 
2886.222903  	95.885231 
2887.654561  	96.044413 
2889.086219  	96.125849 
2890.517877  	96.034609 
2891.949535  	95.823954 
2893.381194  	95.636033 
2894.812852  	95.393163 
2896.244510  	95.135919 
2897.676168  	94.929240 
2899.107826  	94.680513 
2900.539485  	94.398738 
2901.971143  	94.088794 
2903.402801  	93.716486 
2904.834459  	93.277493 
2906.266117  	92.769619 
2907.697776  	92.256971 
2909.129434  	91.645620 
2910.561092  	90.796460 
2911.992750  	89.785229 
2913.424408  	88.545250 
2914.856066  	87.078385 
2916.287725  	85.871469 
2917.719383  	85.335304 
2919.151041  	85.415785 
2920.582699  	85.919168 
2922.014357  	86.670983 
2923.446016  	87.447363 
2924.877674  	88.023117 
2926.309332  	88.376561 
2927.740990  	88.588295 
2929.172648  	88.631766 
2930.604306  	88.562487 
2932.035965  	88.438608 
2933.467623  	88.239191 
2934.899281  	88.039361 
2936.330939  	87.861468 
2937.762597  	87.731605 
2939.194256  	87.729524 
2940.625914  	87.778071 
2942.057572  	87.884886 
2943.489230  	88.128648 
2944.920888  	88.440415 
2946.352547  	88.842497 
2947.784205  	89.308300 
2949.215863  	89.729786 
2950.647521  	90.195268 
2952.079179  	90.702650 
2953.510837  	91.204298 
2954.942496  	91.799305 
2956.374154  	92.448100 
2957.805812  	93.111414 
2959.237470  	93.863538 
2960.669128  	94.717029 
2962.100787  	95.640315 
2963.532445  	96.541881 
2964.964103  	97.444969 
2966.395761  	98.434420 
2967.827419  	99.425270 
2969.259078  	100.394200 
2970.690736  	101.297769 
2972.122394  	102.093322 
2973.554052  	102.944507 
2974.985710  	103.805782 
2976.417368  	104.551904 
2977.849027  	105.232093 
2979.280685  	105.816815 
2980.712343  	106.375876 
2982.144001  	106.911974 
2983.575659  	107.300821 
2985.007318  	107.651412 
2986.438976  	107.964915 
2987.870634  	108.231557 
2989.302292  	108.569164 
2990.733950  	108.827864 
2992.165608  	108.990670 
2993.597267  	109.144871 
2995.028925  	109.198717 
2996.460583  	109.262911 
2997.892241  	109.338284 
2999.323899  	109.342105 
3000.755558  	109.417527 
3002.187216  	109.484405 
3003.618874  	109.492372 
3005.050532  	109.512493 
3006.482190  	109.448527 
3007.913849  	109.425953 
3009.345507  	109.462095 
3010.777165  	109.397391 
3012.208823  	109.400859 
3013.640481  	109.458856 
3015.072139  	109.448229 
3016.503798  	109.481992 
3017.935456  	109.502615 
3019.367114  	109.509730 
3020.798772  	109.534043 
3022.230430  	109.448305 
3023.662089  	109.324807 
3025.093747  	109.182986 
3026.525405  	108.980104 
3027.957063  	108.786388 
3029.388721  	108.519470 
3030.820380  	108.250261 
3032.252038  	108.115591 
3033.683696  	108.003985 
3035.115354  	107.920493 
3036.547012  	107.844695 
3037.978670  	107.722821 
3039.410329  	107.658101 
3040.841987  	107.587075 
3042.273645  	107.525987 
3043.705303  	107.586522 
3045.136961  	107.639237 
3046.568620  	107.657803 
3048.000278  	107.696111 
3049.431936  	107.788600 
3050.863594  	107.975853 
3052.295252  	108.040644 
3053.726910  	107.971548 
3055.158569  	108.003817 
3056.590227  	108.072181 
3058.021885  	108.144037 
3059.453543  	108.221603 
3060.885201  	108.234383 
3062.316860  	108.290623 
3063.748518  	108.346551 
3065.180176  	108.397032 
3066.611834  	108.603159 
3068.043492  	108.793662 
3069.475151  	108.895437 
3070.906809  	109.050867 
3072.338467  	109.201915 
3073.770125  	109.331161 
3075.201783  	109.436265 
3076.633441  	109.542887 
3078.065100  	109.731929 
3079.496758  	109.848901 
3080.928416  	109.867602 
3082.360074  	109.932592 
3083.791732  	110.009758 
3085.223391  	110.086628 
3086.655049  	110.133721 
3088.086707  	110.166550 
3089.518365  	110.234035 
3090.950023  	110.210377 
3092.381682  	110.212253 
3093.813340  	110.314769 
3095.244998  	110.272794 
3096.676656  	110.191629 
3098.108314  	110.146477 
3099.539972  	110.012627 
3100.971631  	109.983437 
3102.403289  	110.002246 
3103.834947  	109.874276 
3105.266605  	109.760977 
3106.698263  	109.676433 
3108.129922  	109.567907 
3109.561580  	109.465562 
3110.993238  	109.312394 
3112.424896  	109.148926 
3113.856554  	109.011344 
3115.288212  	108.914208 
3116.719871  	108.866466 
3118.151529  	108.792753 
3119.583187  	108.761217 
3121.014845  	108.743125 
3122.446503  	108.640044 
3123.878162  	108.592728 
3125.309820  	108.580114 
3126.741478  	108.631663 
3128.173136  	108.864578 
3129.604794  	108.981905 
3131.036453  	109.007056 
3132.468111  	109.267452 
3133.899769  	109.600093 
3135.331427  	109.824735 
3136.763085  	109.943648 
3138.194743  	110.046888 
3139.626402  	110.295465 
3141.058060  	110.470363 
3142.489718  	110.479879 
3143.921376  	110.588724 
3145.353034  	110.750978 
3146.784693  	110.858558 
3148.216351  	110.892139 
3149.648009  	110.834229 
3151.079667  	110.831896 
3152.511325  	110.870603 
3153.942983  	110.867814 
3155.374642  	110.845937 
3156.806300  	110.775460 
3158.237958  	110.759587 
3159.669616  	110.773997 
3161.101274  	110.705692 
3162.532933  	110.685725 
3163.964591  	110.641236 
3165.396249  	110.514099 
3166.827907  	110.450206 
3168.259565  	110.369828 
3169.691224  	110.307326 
3171.122882  	110.262261 
3172.554540  	110.086015 
3173.986198  	109.991412 
3175.417856  	109.947148 
3176.849514  	109.716877 
3178.281173  	109.486051 
3179.712831  	109.273371 
3181.144489  	109.028046 
3182.576147  	108.891281 
3184.007805  	108.764913 
3185.439464  	108.581401 
3186.871122  	108.366095 
3188.302780  	108.149786 
3189.734438  	108.093706 
3191.166096  	108.116999 
3192.597755  	108.101095 
3194.029413  	108.143365 
3195.461071  	108.239319 
3196.892729  	108.414728 
3198.324387  	108.601695 
3199.756045  	108.647068 
3201.187704  	108.688593 
3202.619362  	108.758083 
3204.051020  	108.792262 
3205.482678  	108.840052 
3206.914336  	108.826173 
3208.345995  	108.810481 
3209.777653  	108.850589 
3211.209311  	108.827981 
3212.640969  	108.786715 
3214.072627  	108.693620 
3215.504285  	108.548527 
3216.935944  	108.472126 
3218.367602  	108.323306 
3219.799260  	108.145156 
3221.230918  	108.063335 
3222.662576  	107.923605 
3224.094235  	107.785477 
3225.525893  	107.663494 
3226.957551  	107.473600 
3228.389209  	107.367277 
3229.820867  	107.243699 
3231.252526  	106.999740 
3232.684184  	106.801862 
3234.115842  	106.634485 
3235.547500  	106.486088 
3236.979158  	106.324390 
3238.410816  	106.074021 
3239.842475  	105.872605 
3241.274133  	105.704091 
3242.705791  	105.511091 
3244.137449  	105.344135 
3245.569107  	105.092013 
3247.000766  	104.814007 
3248.432424  	104.619892 
3249.864082  	104.460324 
3251.295740  	104.359710 
3252.727398  	104.176266 
3254.159057  	103.889397 
3255.590715  	103.683974 
3257.022373  	103.406199 
3258.454031  	103.080410 
3259.885689  	102.901134 
3261.317347  	102.696415 
3262.749006  	102.438267 
3264.180664  	102.182389 
3265.612322  	101.873507 
3267.043980  	101.630509 
3268.475638  	101.413372 
3269.907297  	101.114671 
3271.338955  	100.811334 
3272.770613  	100.520445 
3274.202271  	100.252501 
3275.633929  	99.934277 
3277.065587  	99.537905 
3278.497246  	99.220603 
3279.928904  	98.888098 
3281.360562  	98.484677 
3282.792220  	98.131610 
3284.223878  	97.701646 
3285.655537  	97.210204 
3287.087195  	96.771187 
3288.518853  	96.313437 
3289.950511  	95.910558 
3291.382169  	95.525797 
3292.813828  	95.082811 
3294.245486  	94.717169 
3295.677144  	94.310839 
3297.108802  	93.854604 
3298.540460  	93.599561 
3299.972118  	93.405249 
3301.403777  	93.134762 
3302.835435  	92.938650 
3304.267093  	92.844782 
3305.698751  	92.817764 
3307.130409  	92.829603 
3308.562068  	92.874815 
3309.993726  	92.945411 
3311.425384  	92.945801 
3312.857042  	92.879363 
3314.288700  	92.796076 
3315.720359  	92.740752 
3317.152017  	92.774806 
3318.583675  	92.793838 
3320.015333  	92.747768 
3321.446991  	92.733751 
3322.878649  	92.780994 
3324.310308  	92.924133 
3325.741966  	93.071225 
3327.173624  	93.132433 
3328.605282  	93.279601 
3330.036940  	93.522742 
3331.468599  	93.738092 
3332.900257  	93.956349 
3334.331915  	94.215828 
3335.763573  	94.580546 
3337.195231  	95.012772 
3338.626889  	95.433523 
3340.058548  	95.935266 
3341.490206  	96.470834 
3342.921864  	96.994034 
3344.353522  	97.568822 
3345.785180  	98.094148 
3347.216839  	98.635879 
3348.648497  	99.270755 
3350.080155  	99.813194 
3351.511813  	100.326839 
3352.943471  	100.951481 
3354.375130  	101.596551 
3355.806788  	102.168402 
3357.238446  	102.611790 
3358.670104  	103.043438 
3360.101762  	103.571695 
3361.533420  	104.090764 
3362.965079  	104.552371 
3364.396737  	104.966234 
3365.828395  	105.396011 
3367.260053  	105.824341 
3368.691711  	106.079428 
3370.123370  	106.340036 
3371.555028  	106.741509 
3372.986686  	107.025656 
3374.418344  	107.207065 
3375.850002  	107.407071 
3377.281660  	107.625874 
3378.713319  	107.890744 
3380.144977  	108.033965 
3381.576635  	108.078195 
3383.008293  	108.215202 
3384.439951  	108.377435 
3385.871610  	108.572650 
3387.303268  	108.716633 
3388.734926  	108.715401 
3390.166584  	108.809756 
3391.598242  	108.958804 
3393.029901  	109.048923 
3394.461559  	109.180326 
3395.893217  	109.232367 
3397.324875  	109.312004 
3398.756533  	109.541142 
3400.188191  	109.630893 
3401.619850  	109.637355 
3403.051508  	109.720092 
3404.483166  	109.765579 
3405.914824  	109.809720 
3407.346482  	109.891652 
3408.778141  	110.007121 
3410.209799  	110.147612 
3411.641457  	110.238581 
3413.073115  	110.323180 
3414.504773  	110.382403 
3415.936432  	110.422599 
3417.368090  	110.525988 
3418.799748  	110.566631 
3420.231406  	110.580995 
3421.663064  	110.638315 
3423.094722  	110.598024 
3424.526381  	110.609204 
3425.958039  	110.724585 
3427.389697  	110.786618 
3428.821355  	110.852143 
3430.253013  	110.900839 
3431.684672  	110.941508 
3433.116330  	110.980295 
3434.547988  	110.902937 
3435.979646  	110.934593 
3437.411304  	111.101432 
3438.842962  	111.121726 
3440.274621  	111.073875 
3441.706279  	111.006366 
3443.137937  	110.979188 
3444.569595  	111.083538 
3446.001253  	111.109665 
3447.432912  	111.174777 
3448.864570  	111.341576 
3450.296228  	111.351625 
3451.727886  	111.368195 
3453.159544  	111.361310 
3454.591203  	111.269802 
3456.022861  	111.375374 
3457.454519  	111.437717 
3458.886177  	111.349805 
3460.317835  	111.436601 
3461.749493  	111.552361 
3463.181152  	111.588359 
3464.612810  	111.601058 
3466.044468  	111.600665 
3467.476126  	111.701847 
3468.907784  	111.683399 
3470.339443  	111.554743 
3471.771101  	111.592223 
3473.202759  	111.545174 
3474.634417  	111.477336 
3476.066075  	111.639815 
3477.497734  	111.708328 
3478.929392  	111.636160 
3480.361050  	111.564980 
3481.792708  	111.509890 
3483.224366  	111.581992 
3484.656024  	111.614018 
3486.087683  	111.577228 
3487.519341  	111.616815 
3488.950999  	111.596361 
3490.382657  	111.595505 
3491.814315  	111.674410 
3493.245974  	111.681304 
3494.677632  	111.689104 
3496.109290  	111.672627 
3497.540948  	111.630279 
3498.972606  	111.664178 
3500.404264  	111.652770 
3501.835923  	111.654440 
3503.267581  	111.699762 
3504.699239  	111.644334 
3506.130897  	111.647308 
3507.562555  	111.710012 
3508.994214  	111.737068 
3510.425872  	111.776333 
3511.857530  	111.742966 
3513.289188  	111.724808 
3514.720846  	111.769583 
3516.152505  	111.732789 
3517.584163  	111.723000 
3519.015821  	111.745205 
3520.447479  	111.707989 
3521.879137  	111.711735 
3523.310795  	111.745911 
3524.742454  	111.807444 
3526.174112  	111.819242 
3527.605770  	111.737942 
3529.037428  	111.808382 
3530.469086  	111.920196 
3531.900745  	111.932068 
3533.332403  	111.992361 
3534.764061  	111.974962 
3536.195719  	111.967337 
3537.627377  	112.089306 
3539.059035  	112.060953 
3540.490694  	112.033285 
3541.922352  	112.071322 
3543.354010  	111.941883 
3544.785668  	111.891547 
3546.217326  	112.030601 
3547.648985  	112.169088 
3549.080643  	112.301506 
3550.512301  	112.297654 
3551.943959  	112.236840 
3553.375617  	112.282889 
3554.807276  	112.316707 
3556.238934  	112.348227 
3557.670592  	112.364759 
3559.102250  	112.366822 
3560.533908  	112.465357 
3561.965566  	112.525406 
3563.397225  	112.476595 
3564.828883  	112.328968 
3566.260541  	112.174821 
3567.692199  	112.455348 
3569.123857  	112.752754 
3570.555516  	112.634171 
3571.987174  	112.596133 
3573.418832  	112.603500 
3574.850490  	112.516687 
3576.282148  	112.514626 
3577.713807  	112.587970 
3579.145465  	112.745647 
3580.577123  	112.853707 
3582.008781  	112.756673 
3583.440439  	112.735644 
3584.872097  	112.716520 
3586.303756  	112.496034 
3587.735414  	112.480437 
3589.167072  	112.838875 
3590.598730  	112.998695 
3592.030388  	112.883794 
3593.462047  	112.667171 
3594.893705  	112.630718 
3596.325363  	112.774829 
3597.757021  	112.837668 
3599.188679  	112.821151 
3600.620337  	112.852363 
3602.051996  	112.961290 
3603.483654  	112.982561 
3604.915312  	112.970781 
3606.346970  	113.029889 
3607.778628  	112.957638 
3609.210287  	112.974559 
3610.641945  	113.208274 
3612.073603  	113.098241 
3613.505261  	112.963103 
3614.936919  	113.193630 
3616.368578  	113.165982 
3617.800236  	112.939308 
3619.231894  	112.969475 
3620.663552  	113.225831 
3622.095210  	113.347077 
3623.526868  	113.242294 
3624.958527  	113.136773 
3626.390185  	113.011808 
3627.821843  	112.616344 
3629.253501  	112.568373 
3630.685159  	113.266434 
3632.116818  	113.245974 
3633.548476  	113.156184 
3634.980134  	113.374055 
3636.411792  	113.457593 
3637.843450  	113.489211 
3639.275109  	113.589385 
3640.706767  	113.504927 
3642.138425  	113.394404 
3643.570083  	113.508379 
3645.001741  	113.564866 
3646.433399  	113.370702 
3647.865058  	113.126289 
3649.296716  	112.945455 
3650.728374  	113.117238 
3652.160032  	113.809488 
3653.591690  	113.820377 
3655.023349  	113.434117 
3656.455007  	113.555181 
3657.886665  	113.887072 
3659.318323  	113.740283 
3660.749981  	113.698200 
3662.181639  	113.796420 
3663.613298  	113.876254 
3665.044956  	113.977959 
3666.476614  	113.941276 
3667.908272  	113.768526 
3669.339930  	113.540057 
3670.771589  	113.563272 
3672.203247  	113.758171 
3673.634905  	113.462819 
3675.066563  	113.201931 
3676.498221  	113.936587 
3677.929880  	114.122051 
3679.361538  	114.068333 
3680.793196  	114.201093 
3682.224854  	114.074950 
3683.656512  	114.022218 
3685.088170  	114.028905 
3686.519829  	113.773822 
3687.951487  	113.705058 
3689.383145  	113.975445 
3690.814803  	114.035127 
3692.246461  	114.128845 
3693.678120  	114.158772 
3695.109778  	113.994066 
3696.541436  	113.935586 
3697.973094  	114.014833 
3699.404752  	113.950268 
3700.836411  	113.820537 
3702.268069  	113.990361 
3703.699727  	114.210832 
3705.131385  	114.133940 
3706.563043  	114.031175 
3707.994701  	113.931045 
3709.426360  	113.780102 
3710.858018  	113.736227 
3712.289676  	113.836838 
3713.721334  	114.213699 
3715.152992  	114.466275 
3716.584651  	114.277140 
3718.016309  	114.106240 
3719.447967  	114.148552 
3720.879625  	114.031517 
3722.311283  	113.923523 
3723.742941  	113.984116 
3725.174600  	113.963083 
3726.606258  	113.980019 
3728.037916  	114.098854 
3729.469574  	114.063678 
3730.901232  	113.913872 
3732.332891  	113.857229 
3733.764549  	113.805175 
3735.196207  	113.636697 
3736.627865  	114.078336 
3738.059523  	114.483117 
3739.491182  	114.286310 
3740.922840  	114.291395 
3742.354498  	114.206578 
3743.786156  	113.732705 
3745.217814  	114.187955 
3746.649472  	114.599680 
3748.081131  	114.107733 
3749.512789  	113.999892 
3750.944447  	114.171820 
3752.376105  	114.143003 
3753.807763  	114.488477 
3755.239422  	114.479872 
3756.671080  	114.327949 
3758.102738  	114.441606 
3759.534396  	114.431652 
3760.966054  	114.482658 
3762.397712  	114.586163 
3763.829371  	114.379157 
3765.261029  	114.279165 
3766.692687  	114.423697 
3768.124345  	114.347328 
3769.556003  	114.262502 
3770.987662  	114.430741 
3772.419320  	114.546709 
3773.850978  	114.450574 
3775.282636  	114.373381 
3776.714294  	114.423432 
3778.145953  	114.310602 
3779.577611  	114.168572 
3781.009269  	114.354483 
3782.440927  	114.382336 
3783.872585  	114.218138 
3785.304243  	114.229628 
3786.735902  	114.364054 
3788.167560  	114.413525 
3789.599218  	114.318158 
3791.030876  	114.227837 
3792.462534  	114.329441 
3793.894193  	114.384242 
3795.325851  	114.284787 
3796.757509  	114.248204 
3798.189167  	114.199210 
3799.620825  	113.968832 
3801.052484  	113.787644 
3802.484142  	114.226403 
3803.915800  	114.426143 
3805.347458  	113.994385 
3806.779116  	113.849737 
3808.210774  	114.420892 
3809.642433  	114.412444 
3811.074091  	114.206660 
3812.505749  	114.324436 
3813.937407  	114.281136 
3815.369065  	114.102284 
3816.800724  	114.316124 
3818.232382  	114.240119 
3819.664040  	113.758855 
3821.095698  	113.676895 
3822.527356  	114.336213 
3823.959014  	114.316665 
3825.390673  	114.105366 
3826.822331  	114.207125 
3828.253989  	114.237153 
3829.685647  	114.056245 
3831.117305  	114.036269 
3832.548964  	114.180668 
3833.980622  	114.243246 
3835.412280  	114.155211 
3836.843938  	113.999697 
3838.275596  	113.962796 
3839.707255  	114.035783 
3841.138913  	114.092942 
3842.570571  	114.122082 
3844.002229  	114.209213 
3845.433887  	114.356600 
3846.865545  	114.247346 
3848.297204  	114.041364 
3849.728862  	114.088440 
3851.160520  	113.973508 
3852.592178  	113.481340 
3854.023836  	113.717910 
3855.455495  	114.380898 
3856.887153  	114.353889 
3858.318811  	114.358370 
3859.750469  	114.309331 
3861.182127  	114.195724 
3862.613786  	114.079175 
3864.045444  	113.887666 
3865.477102  	114.030947 
3866.908760  	114.272570 
3868.340418  	114.028310 
3869.772076  	113.942526 
3871.203735  	114.393267 
3872.635393  	114.293837 
3874.067051  	114.144932 
3875.498709  	114.371747 
3876.930367  	114.323941 
3878.362026  	114.035059 
3879.793684  	113.942551 
3881.225342  	114.176856 
3882.657000  	114.234318 
3884.088658  	113.932551 
3885.520316  	113.745451 
3886.951975  	114.196280 
3888.383633  	114.322980 
3889.815291  	114.004490 
3891.246949  	113.967752 
3892.678607  	114.298612 
3894.110266  	114.320300 
3895.541924  	114.217180 
3896.973582  	114.100475 
3898.405240  	113.950718 
3899.836898  	113.949959 
3901.268557  	113.985310 
3902.700215  	113.936096 
3904.131873  	114.016724 
3905.563531  	114.195386 
3906.995189  	114.308340 
3908.426847  	114.327065 
3909.858506  	114.279425 
3911.290164  	114.302734 
3912.721822  	114.361368 
3914.153480  	114.272980 
3915.585138  	114.072098 
3917.016797  	113.931219 
3918.448455  	113.994349 
3919.880113  	114.100243 
3921.311771  	114.107439 
3922.743429  	114.067933 
3924.175088  	114.038173 
3925.606746  	114.066349 
3927.038404  	114.067648 
3928.470062  	114.011443 
3929.901720  	114.033247 
3931.333378  	114.022494 
3932.765037  	113.969225 
3934.196695  	114.116121 
3935.628353  	114.186713 
3937.060011  	114.113912 
3938.491669  	114.161623 
3939.923328  	114.123213 
3941.354986  	113.916732 
3942.786644  	113.856600 
3944.218302  	113.932542 
3945.649960  	113.958607 
3947.081618  	113.984074 
3948.513277  	114.052367 
3949.944935  	114.091777 
3951.376593  	114.058208 
3952.808251  	114.070535 
3954.239909  	114.077545 
3955.671568  	113.994734 
3957.103226  	114.026854 
3958.534884  	114.114998 
3959.966542  	114.073698 
3961.398200  	114.064000 
3962.829859  	114.082454 
3964.261517  	114.065473 
3965.693175  	114.092046 
3967.124833  	114.070979 
3968.556491  	114.001382 
3969.988149  	113.938905 
3971.419808  	113.891650 
3972.851466  	113.934745 
3974.283124  	113.916230 
3975.714782  	113.829989 
3977.146440  	113.887456 
3978.578099  	113.935577 
3980.009757  	113.953088 
3981.441415  	114.009575 
3982.873073  	113.892045 
3984.304731  	113.783951 
3985.736389  	113.887941 
3987.168048  	113.914216 
3988.599706  	113.825653 
3990.031364  	113.821386 
3991.463022  	113.890186 
3992.894680  	113.947015 
3994.326339  	114.003967 
3995.757997  	114.081757 
3997.189655  	114.024232 
3998.621313  	113.879819 
4000.052971  	113.919590 