##TITLE=No Description
##DATA TYPE=INFRARED SPECTRUM
##XUNITS=1/CM
##YUNITS=Abs
399.432634  	0.243059 
400.864292  	0.256134 
402.295950  	0.269926 
403.727608  	0.317553 
405.159267  	0.355275 
406.590925  	0.351014 
408.022583  	0.347282 
409.454241  	0.333823 
410.885899  	0.327952 
412.317558  	0.337994 
413.749216  	0.323128 
415.180874  	0.313712 
416.612532  	0.326733 
418.044190  	0.304006 
419.475848  	0.277759 
420.907507  	0.306212 
422.339165  	0.320392 
423.770823  	0.333969 
425.202481  	0.339637 
426.634139  	0.308156 
428.065798  	0.282827 
429.497456  	0.277463 
430.929114  	0.273743 
432.360772  	0.282037 
433.792430  	0.286316 
435.224089  	0.272522 
436.655747  	0.269908 
438.087405  	0.276585 
439.519063  	0.271830 
440.950721  	0.262845 
442.382379  	0.250005 
443.814038  	0.243007 
445.245696  	0.246215 
446.677354  	0.243158 
448.109012  	0.241617 
449.540670  	0.247162 
450.972329  	0.246318 
452.403987  	0.243970 
453.835645  	0.244857 
455.267303  	0.246255 
456.698961  	0.249754 
458.130619  	0.251697 
459.562278  	0.257668 
460.993936  	0.261819 
462.425594  	0.249805 
463.857252  	0.242033 
465.288910  	0.251743 
466.720569  	0.257573 
468.152227  	0.256191 
469.583885  	0.257240 
471.015543  	0.261346 
472.447201  	0.269118 
473.878860  	0.269965 
475.310518  	0.264881 
476.742176  	0.267070 
478.173834  	0.276229 
479.605492  	0.286841 
481.037150  	0.292128 
482.468809  	0.288280 
483.900467  	0.288130 
485.332125  	0.297582 
486.763783  	0.309501 
488.195441  	0.319263 
489.627100  	0.320163 
491.058758  	0.317329 
492.490416  	0.325156 
493.922074  	0.338167 
495.353732  	0.348596 
496.785391  	0.358473 
498.217049  	0.366353 
499.648707  	0.375969 
501.080365  	0.392608 
502.512023  	0.409091 
503.943681  	0.417556 
505.375340  	0.425812 
506.806998  	0.437731 
508.238656  	0.441216 
509.670314  	0.430890 
511.101972  	0.418690 
512.533631  	0.408331 
513.965289  	0.396464 
515.396947  	0.384685 
516.828605  	0.372108 
518.260263  	0.358220 
519.691921  	0.347368 
521.123580  	0.341259 
522.555238  	0.338608 
523.986896  	0.335950 
525.418554  	0.332220 
526.850212  	0.330950 
528.281871  	0.332933 
529.713529  	0.335516 
531.145187  	0.338359 
532.576845  	0.342658 
534.008503  	0.346812 
535.440162  	0.346596 
536.871820  	0.344076 
538.303478  	0.345169 
539.735136  	0.348971 
541.166794  	0.352273 
542.598452  	0.354058 
544.030111  	0.355501 
545.461769  	0.357802 
546.893427  	0.357496 
548.325085  	0.355113 
549.756743  	0.355152 
551.188402  	0.354765 
552.620060  	0.353359 
554.051718  	0.353510 
555.483376  	0.352551 
556.915034  	0.351951 
558.346692  	0.353819 
559.778351  	0.354452 
561.210009  	0.353802 
562.641667  	0.352838 
564.073325  	0.351202 
565.504983  	0.350849 
566.936642  	0.350802 
568.368300  	0.350369 
569.799958  	0.349717 
571.231616  	0.347468 
572.663274  	0.347465 
574.094933  	0.350350 
575.526591  	0.351027 
576.958249  	0.351686 
578.389907  	0.353374 
579.821565  	0.351607 
581.253223  	0.349010 
582.684882  	0.348938 
584.116540  	0.349415 
585.548198  	0.349580 
586.979856  	0.348563 
588.411514  	0.347790 
589.843173  	0.349292 
591.274831  	0.350122 
592.706489  	0.349531 
594.138147  	0.350661 
595.569805  	0.352308 
597.001464  	0.352428 
598.433122  	0.352674 
599.864780  	0.354662 
601.296438  	0.357079 
602.728096  	0.359455 
604.159754  	0.362822 
605.591413  	0.364723 
607.023071  	0.364611 
608.454729  	0.365973 
609.886387  	0.366335 
611.318045  	0.362046 
612.749704  	0.356073 
614.181362  	0.352049 
615.613020  	0.349476 
617.044678  	0.345761 
618.476336  	0.342783 
619.907994  	0.343828 
621.339653  	0.344757 
622.771311  	0.343172 
624.202969  	0.343448 
625.634627  	0.344112 
627.066285  	0.343122 
628.497944  	0.343907 
629.929602  	0.344907 
631.361260  	0.344544 
632.792918  	0.344810 
634.224576  	0.344133 
635.656235  	0.342222 
637.087893  	0.341208 
638.519551  	0.340792 
639.951209  	0.339795 
641.382867  	0.337084 
642.814525  	0.334518 
644.246184  	0.334520 
645.677842  	0.335005 
647.109500  	0.335364 
648.541158  	0.335676 
649.972816  	0.333203 
651.404475  	0.329845 
652.836133  	0.327994 
654.267791  	0.325387 
655.699449  	0.322182 
657.131107  	0.320126 
658.562766  	0.318009 
659.994424  	0.315037 
661.426082  	0.312330 
662.857740  	0.309726 
664.289398  	0.306455 
665.721056  	0.305097 
667.152715  	0.309540 
668.584373  	0.312453 
670.016031  	0.301987 
671.447689  	0.294726 
672.879347  	0.291607 
674.311006  	0.289342 
675.742664  	0.285565 
677.174322  	0.281514 
678.605980  	0.278377 
680.037638  	0.274558 
681.469296  	0.269970 
682.900955  	0.266224 
684.332613  	0.262926 
685.764271  	0.259666 
687.195929  	0.256579 
688.627587  	0.253431 
690.059246  	0.249962 
691.490904  	0.245846 
692.922562  	0.241872 
694.354220  	0.238844 
695.785878  	0.235751 
697.217537  	0.231957 
698.649195  	0.227750 
700.080853  	0.224031 
701.512511  	0.221662 
702.944169  	0.219488 
704.375827  	0.216922 
705.807486  	0.215039 
707.239144  	0.213015 
708.670802  	0.209560 
710.102460  	0.205214 
711.534118  	0.200598 
712.965777  	0.196488 
714.397435  	0.193503 
715.829093  	0.190712 
717.260751  	0.187369 
718.692409  	0.184252 
720.124067  	0.181808 
721.555726  	0.179387 
722.987384  	0.176678 
724.419042  	0.173585 
725.850700  	0.170154 
727.282358  	0.167130 
728.714017  	0.164270 
730.145675  	0.161003 
731.577333  	0.158097 
733.008991  	0.155216 
734.440649  	0.151801 
735.872308  	0.149228 
737.303966  	0.147673 
738.735624  	0.146390 
740.167282  	0.146088 
741.598940  	0.146683 
743.030598  	0.147203 
744.462257  	0.147647 
745.893915  	0.148050 
747.325573  	0.148216 
748.757231  	0.148145 
750.188889  	0.147484 
751.620548  	0.146173 
753.052206  	0.144718 
754.483864  	0.143231 
755.915522  	0.142124 
757.347180  	0.142492 
758.778839  	0.144173 
760.210497  	0.146326 
761.642155  	0.150125 
763.073813  	0.156965 
764.505471  	0.166169 
765.937129  	0.176415 
767.368788  	0.185893 
768.800446  	0.191607 
770.232104  	0.191344 
771.663762  	0.185225 
773.095420  	0.174087 
774.527079  	0.160219 
775.958737  	0.146776 
777.390395  	0.135018 
778.822053  	0.125058 
780.253711  	0.116691 
781.685369  	0.109182 
783.117028  	0.101260 
784.548686  	0.092489 
785.980344  	0.084328 
787.412002  	0.077650 
788.843660  	0.071906 
790.275319  	0.067377 
791.706977  	0.064679 
793.138635  	0.063403 
794.570293  	0.063320 
796.001951  	0.064731 
797.433610  	0.067005 
798.865268  	0.069915 
800.296926  	0.074385 
801.728584  	0.080076 
803.160242  	0.086529 
804.591900  	0.093794 
806.023559  	0.101045 
807.455217  	0.108838 
808.886875  	0.118062 
810.318533  	0.127350 
811.750191  	0.135440 
813.181850  	0.142103 
814.613508  	0.147069 
816.045166  	0.148966 
817.476824  	0.145874 
818.908482  	0.137907 
820.340141  	0.126854 
821.771799  	0.114573 
823.203457  	0.103635 
824.635115  	0.095760 
826.066773  	0.089868 
827.498431  	0.084953 
828.930090  	0.080876 
830.361748  	0.077544 
831.793406  	0.075368 
833.225064  	0.073626 
834.656722  	0.071760 
836.088381  	0.070818 
837.520039  	0.070651 
838.951697  	0.070874 
840.383355  	0.072179 
841.815013  	0.074275 
843.246671  	0.076854 
844.678330  	0.080004 
846.109988  	0.082654 
847.541646  	0.084034 
848.973304  	0.084281 
850.404962  	0.082837 
851.836621  	0.079770 
853.268279  	0.076613 
854.699937  	0.073874 
856.131595  	0.070763 
857.563253  	0.067694 
858.994912  	0.065802 
860.426570  	0.064585 
861.858228  	0.062922 
863.289886  	0.060331 
864.721544  	0.056319 
866.153202  	0.050835 
867.584861  	0.044487 
869.016519  	0.038019 
870.448177  	0.032137 
871.879835  	0.026887 
873.311493  	0.022413 
874.743152  	0.019231 
876.174810  	0.017188 
877.606468  	0.016145 
879.038126  	0.015611 
880.469784  	0.015017 
881.901443  	0.014997 
883.333101  	0.015336 
884.764759  	0.015242 
886.196417  	0.015449 
887.628075  	0.016162 
889.059733  	0.016734 
890.491392  	0.017322 
891.923050  	0.017924 
893.354708  	0.018425 
894.786366  	0.019338 
896.218024  	0.020596 
897.649683  	0.021495 
899.081341  	0.022243 
900.512999  	0.023592 
901.944657  	0.025264 
903.376315  	0.026585 
904.807973  	0.027997 
906.239632  	0.030382 
907.671290  	0.033687 
909.102948  	0.037330 
910.534606  	0.041422 
911.966264  	0.046159 
913.397923  	0.050454 
914.829581  	0.052663 
916.261239  	0.052123 
917.692897  	0.049841 
919.124555  	0.047026 
920.556214  	0.043979 
921.987872  	0.041482 
923.419530  	0.040088 
924.851188  	0.039160 
926.282846  	0.039034 
927.714504  	0.040266 
929.146163  	0.041840 
930.577821  	0.043515 
932.009479  	0.045728 
933.441137  	0.048004 
934.872795  	0.050358 
936.304454  	0.053060 
937.736112  	0.055954 
939.167770  	0.058876 
940.599428  	0.061345 
942.031086  	0.063483 
943.462744  	0.065971 
944.894403  	0.068637 
946.326061  	0.071029 
947.757719  	0.073243 
949.189377  	0.075696 
950.621035  	0.078403 
952.052694  	0.080943 
953.484352  	0.083581 
954.916010  	0.086498 
956.347668  	0.089048 
957.779326  	0.090998 
959.210985  	0.092365 
960.642643  	0.092986 
962.074301  	0.092989 
963.505959  	0.092539 
964.937617  	0.091489 
966.369275  	0.089959 
967.800934  	0.088933 
969.232592  	0.088807 
970.664250  	0.088806 
972.095908  	0.089170 
973.527566  	0.090606 
974.959225  	0.092551 
976.390883  	0.094682 
977.822541  	0.097042 
979.254199  	0.099085 
980.685857  	0.100552 
982.117516  	0.101194 
983.549174  	0.100679 
984.980832  	0.099174 
986.412490  	0.097265 
987.844148  	0.095632 
989.275806  	0.094311 
990.707465  	0.093485 
992.139123  	0.093675 
993.570781  	0.094414 
995.002439  	0.095598 
996.434097  	0.097790 
997.865756  	0.100461 
999.297414  	0.103321 
1000.729072  	0.106559 
1002.160730  	0.110064 
1003.592388  	0.114150 
1005.024046  	0.118399 
1006.455705  	0.122767 
1007.887363  	0.128354 
1009.319021  	0.134725 
1010.750679  	0.141889 
1012.182337  	0.151140 
1013.613996  	0.163532 
1015.045654  	0.180612 
1016.477312  	0.197955 
1017.908970  	0.204223 
1019.340628  	0.194909 
1020.772287  	0.176044 
1022.203945  	0.157055 
1023.635603  	0.144093 
1025.067261  	0.138978 
1026.498919  	0.140812 
1027.930577  	0.146575 
1029.362236  	0.153727 
1030.793894  	0.161967 
1032.225552  	0.170288 
1033.657210  	0.178267 
1035.088868  	0.186467 
1036.520527  	0.193642 
1037.952185  	0.200209 
1039.383843  	0.207207 
1040.815501  	0.214344 
1042.247159  	0.222903 
1043.678818  	0.232829 
1045.110476  	0.243570 
1046.542134  	0.255683 
1047.973792  	0.268022 
1049.405450  	0.281702 
1050.837108  	0.296993 
1052.268767  	0.311286 
1053.700425  	0.326295 
1055.132083  	0.341629 
1056.563741  	0.354933 
1057.995399  	0.367114 
1059.427058  	0.376160 
1060.858716  	0.382546 
1062.290374  	0.387036 
1063.722032  	0.387630 
1065.153690  	0.387493 
1066.585348  	0.386211 
1068.017007  	0.382752 
1069.448665  	0.380688 
1070.880323  	0.378035 
1072.311981  	0.374580 
1073.743639  	0.371860 
1075.175298  	0.367460 
1076.606956  	0.362394 
1078.038614  	0.355178 
1079.470272  	0.343584 
1080.901930  	0.329790 
1082.333589  	0.312263 
1083.765247  	0.291487 
1085.196905  	0.270625 
1086.628563  	0.251906 
1088.060221  	0.239522 
1089.491879  	0.233561 
1090.923538  	0.231146 
1092.355196  	0.232273 
1093.786854  	0.235239 
1095.218512  	0.238414 
1096.650170  	0.242414 
1098.081829  	0.245826 
1099.513487  	0.249139 
1100.945145  	0.252731 
1102.376803  	0.254667 
1103.808461  	0.255911 
1105.240120  	0.255946 
1106.671778  	0.253681 
1108.103436  	0.250080 
1109.535094  	0.244147 
1110.966752  	0.236598 
1112.398410  	0.227745 
1113.830069  	0.216259 
1115.261727  	0.204167 
1116.693385  	0.192116 
1118.125043  	0.179582 
1119.556701  	0.168051 
1120.988360  	0.157439 
1122.420018  	0.146800 
1123.851676  	0.135640 
1125.283334  	0.123746 
1126.714992  	0.112165 
1128.146650  	0.101290 
1129.578309  	0.090883 
1131.009967  	0.081588 
1132.441625  	0.073524 
1133.873283  	0.066212 
1135.304941  	0.059937 
1136.736600  	0.054774 
1138.168258  	0.050393 
1139.599916  	0.046923 
1141.031574  	0.043967 
1142.463232  	0.041442 
1143.894891  	0.039796 
1145.326549  	0.038265 
1146.758207  	0.036740 
1148.189865  	0.035861 
1149.621523  	0.035166 
1151.053181  	0.034701 
1152.484840  	0.034657 
1153.916498  	0.034795 
1155.348156  	0.035425 
1156.779814  	0.036421 
1158.211472  	0.037855 
1159.643131  	0.039875 
1161.074789  	0.041755 
1162.506447  	0.043836 
1163.938105  	0.046727 
1165.369763  	0.050086 
1166.801421  	0.053681 
1168.233080  	0.057425 
1169.664738  	0.062051 
1171.096396  	0.067874 
1172.528054  	0.074291 
1173.959712  	0.082002 
1175.391371  	0.091182 
1176.823029  	0.101511 
1178.254687  	0.113465 
1179.686345  	0.125691 
1181.118003  	0.136308 
1182.549662  	0.144440 
1183.981320  	0.151042 
1185.412978  	0.158868 
1186.844636  	0.168682 
1188.276294  	0.180542 
1189.707952  	0.194573 
1191.139611  	0.209643 
1192.571269  	0.226365 
1194.002927  	0.244600 
1195.434585  	0.263633 
1196.866243  	0.285046 
1198.297902  	0.307907 
1199.729560  	0.331465 
1201.161218  	0.354006 
1202.592876  	0.370428 
1204.024534  	0.380895 
1205.456193  	0.384819 
1206.887851  	0.383289 
1208.319509  	0.382938 
1209.751167  	0.385305 
1211.182825  	0.393241 
1212.614483  	0.408196 
1214.046142  	0.424128 
1215.477800  	0.439767 
1216.909458  	0.452018 
1218.341116  	0.456561 
1219.772774  	0.456633 
1221.204433  	0.450341 
1222.636091  	0.439889 
1224.067749  	0.429415 
1225.499407  	0.415791 
1226.931065  	0.401796 
1228.362723  	0.387832 
1229.794382  	0.371694 
1231.226040  	0.356403 
1232.657698  	0.340057 
1234.089356  	0.322170 
1235.521014  	0.304501 
1236.952673  	0.284910 
1238.384331  	0.265192 
1239.815989  	0.246149 
1241.247647  	0.226751 
1242.679305  	0.209562 
1244.110964  	0.194785 
1245.542622  	0.182530 
1246.974280  	0.174950 
1248.405938  	0.171619 
1249.837596  	0.171207 
1251.269254  	0.171036 
1252.700913  	0.166951 
1254.132571  	0.158485 
1255.564229  	0.145938 
1256.995887  	0.130117 
1258.427545  	0.114071 
1259.859204  	0.098760 
1261.290862  	0.084626 
1262.722520  	0.072872 
1264.154178  	0.063355 
1265.585836  	0.056076 
1267.017495  	0.051384 
1268.449153  	0.048455 
1269.880811  	0.046978 
1271.312469  	0.046893 
1272.744127  	0.047186 
1274.175785  	0.047738 
1275.607444  	0.048124 
1277.039102  	0.047485 
1278.470760  	0.046487 
1279.902418  	0.045242 
1281.334076  	0.043453 
1282.765735  	0.041928 
1284.197393  	0.041070 
1285.629051  	0.041084 
1287.060709  	0.042186 
1288.492367  	0.044577 
1289.924025  	0.048877 
1291.355684  	0.054629 
1292.787342  	0.061633 
1294.219000  	0.070524 
1295.650658  	0.081394 
1297.082316  	0.094781 
1298.513975  	0.110355 
1299.945633  	0.128090 
1301.377291  	0.148204 
1302.808949  	0.168512 
1304.240607  	0.188273 
1305.672266  	0.205173 
1307.103924  	0.216338 
1308.535582  	0.221929 
1309.967240  	0.220075 
1311.398898  	0.212709 
1312.830556  	0.202310 
1314.262215  	0.190125 
1315.693873  	0.180033 
1317.125531  	0.170477 
1318.557189  	0.157304 
1319.988847  	0.139460 
1321.420506  	0.118479 
1322.852164  	0.098198 
1324.283822  	0.080362 
1325.715480  	0.065529 
1327.147138  	0.053528 
1328.578796  	0.043888 
1330.010455  	0.036996 
1331.442113  	0.032062 
1332.873771  	0.028619 
1334.305429  	0.026637 
1335.737087  	0.025873 
1337.168746  	0.026196 
1338.600404  	0.026620 
1340.032062  	0.026938 
1341.463720  	0.027018 
1342.895378  	0.026538 
1344.327037  	0.026298 
1345.758695  	0.026377 
1347.190353  	0.026928 
1348.622011  	0.028531 
1350.053669  	0.030374 
1351.485327  	0.032587 
1352.916986  	0.035479 
1354.348644  	0.038373 
1355.780302  	0.041400 
1357.211960  	0.043878 
1358.643618  	0.045753 
1360.075277  	0.047818 
1361.506935  	0.049560 
1362.938593  	0.051028 
1364.370251  	0.052122 
1365.801909  	0.052672 
1367.233568  	0.053288 
1368.665226  	0.053222 
1370.096884  	0.052189 
1371.528542  	0.051156 
1372.960200  	0.049907 
1374.391858  	0.047753 
1375.823517  	0.044986 
1377.255175  	0.042554 
1378.686833  	0.040308 
1380.118491  	0.037849 
1381.550149  	0.035414 
1382.981808  	0.033643 
1384.413466  	0.032909 
1385.845124  	0.032941 
1387.276782  	0.033528 
1388.708440  	0.033801 
1390.140098  	0.033991 
1391.571757  	0.034409 
1393.003415  	0.034854 
1394.435073  	0.035996 
1395.866731  	0.037936 
1397.298389  	0.040602 
1398.730048  	0.044946 
1400.161706  	0.050661 
1401.593364  	0.057750 
1403.025022  	0.067495 
1404.456680  	0.081363 
1405.888339  	0.101966 
1407.319997  	0.128032 
1408.751655  	0.158379 
1410.183313  	0.193555 
1411.614971  	0.221360 
1413.046629  	0.230273 
1414.478288  	0.220819 
1415.909946  	0.190222 
1417.341604  	0.153833 
1418.773262  	0.115466 
1420.204920  	0.071185 
1421.636579  	0.049377 
1423.068237  	0.037769 
1424.499895  	0.027827 
1425.931553  	0.026547 
1427.363211  	0.028480 
1428.794870  	0.032970 
1430.226528  	0.040904 
1431.658186  	0.046803 
1433.089844  	0.051821 
1434.521502  	0.055065 
1435.953160  	0.055110 
1437.384819  	0.052064 
1438.816477  	0.048507 
1440.248135  	0.046318 
1441.679793  	0.046027 
1443.111451  	0.047523 
1444.543110  	0.051108 
1445.974768  	0.054542 
1447.406426  	0.055450 
1448.838084  	0.055404 
1450.269742  	0.054854 
1451.701400  	0.054620 
1453.133059  	0.056013 
1454.564717  	0.057218 
1455.996375  	0.058140 
1457.428033  	0.057377 
1458.859691  	0.054268 
1460.291350  	0.053518 
1461.723008  	0.054316 
1463.154666  	0.056441 
1464.586324  	0.060670 
1466.017982  	0.064447 
1467.449641  	0.067621 
1468.881299  	0.071265 
1470.312957  	0.074187 
1471.744615  	0.078403 
1473.176273  	0.083647 
1474.607931  	0.087539 
1476.039590  	0.092921 
1477.471248  	0.095733 
1478.902906  	0.094697 
1480.334564  	0.090870 
1481.766222  	0.083252 
1483.197881  	0.077793 
1484.629539  	0.073685 
1486.061197  	0.070338 
1487.492855  	0.069881 
1488.924513  	0.068352 
1490.356172  	0.069287 
1491.787830  	0.072837 
1493.219488  	0.075474 
1494.651146  	0.082285 
1496.082804  	0.090997 
1497.514462  	0.099649 
1498.946121  	0.113112 
1500.377779  	0.124767 
1501.809437  	0.138544 
1503.241095  	0.156225 
1504.672753  	0.170286 
1506.104412  	0.191140 
1507.536070  	0.227526 
1508.967728  	0.248378 
1510.399386  	0.274356 
1511.831044  	0.296917 
1513.262702  	0.313432 
1514.694361  	0.329527 
1516.126019  	0.334116 
1517.557677  	0.342873 
1518.989335  	0.355257 
1520.420993  	0.357112 
1521.852652  	0.376550 
1523.284310  	0.386222 
1524.715968  	0.385542 
1526.147626  	0.392700 
1527.579284  	0.384866 
1529.010943  	0.378818 
1530.442601  	0.372274 
1531.874259  	0.356256 
1533.305917  	0.345547 
1534.737575  	0.323637 
1536.169233  	0.303845 
1537.600892  	0.292060 
1539.032550  	0.266303 
1540.464208  	0.238073 
1541.895866  	0.215962 
1543.327524  	0.189341 
1544.759183  	0.169591 
1546.190841  	0.143867 
1547.622499  	0.123259 
1549.054157  	0.107858 
1550.485815  	0.084867 
1551.917473  	0.068366 
1553.349132  	0.056759 
1554.780790  	0.040800 
1556.212448  	0.031052 
1557.644106  	0.025199 
1559.075764  	0.014655 
1560.507423  	0.005708 
1561.939081  	0.001609 
1563.370739  	-0.001341 
1564.802397  	-0.004145 
1566.234055  	-0.006926 
1567.665714  	-0.008051 
1569.097372  	-0.008788 
1570.529030  	-0.010048 
1571.960688  	-0.010518 
1573.392346  	-0.010146 
1574.824004  	-0.009210 
1576.255663  	-0.007553 
1577.687321  	-0.005341 
1579.118979  	-0.003074 
1580.550637  	0.000767 
1581.982295  	0.006554 
1583.413954  	0.013819 
1584.845612  	0.024604 
1586.277270  	0.037975 
1587.708928  	0.054060 
1589.140586  	0.075062 
1590.572245  	0.096569 
1592.003903  	0.118832 
1593.435561  	0.138268 
1594.867219  	0.149169 
1596.298877  	0.156338 
1597.730535  	0.154133 
1599.162194  	0.145572 
1600.593852  	0.135725 
1602.025510  	0.121024 
1603.457168  	0.107675 
1604.888826  	0.096304 
1606.320485  	0.086154 
1607.752143  	0.080599 
1609.183801  	0.076217 
1610.615459  	0.073457 
1612.047117  	0.072073 
1613.478775  	0.067560 
1614.910434  	0.063378 
1616.342092  	0.055517 
1617.773750  	0.040193 
1619.205408  	0.030563 
1620.637066  	0.021218 
1622.068725  	0.012693 
1623.500383  	0.007081 
1624.932041  	0.000664 
1626.363699  	-0.001924 
1627.795357  	-0.002828 
1629.227016  	-0.005661 
1630.658674  	-0.005861 
1632.090332  	-0.006147 
1633.521990  	-0.007122 
1634.953648  	-0.005270 
1636.385306  	-0.006248 
1637.816965  	-0.007368 
1639.248623  	-0.006320 
1640.680281  	-0.007477 
1642.111939  	-0.006976 
1643.543597  	-0.005701 
1644.975256  	-0.005818 
1646.406914  	-0.003389 
1647.838572  	-0.003255 
1649.270230  	-0.003454 
1650.701888  	-0.000714 
1652.133547  	-0.000121 
1653.565205  	0.002067 
1654.996863  	0.004535 
1656.428521  	0.004215 
1657.860179  	0.007429 
1659.291837  	0.009865 
1660.723496  	0.011490 
1662.155154  	0.016275 
1663.586812  	0.018306 
1665.018470  	0.021217 
1666.450128  	0.025985 
1667.881787  	0.028438 
1669.313445  	0.034795 
1670.745103  	0.040621 
1672.176761  	0.044329 
1673.608419  	0.053174 
1675.040077  	0.060079 
1676.471736  	0.069592 
1677.903394  	0.081410 
1679.335052  	0.089232 
1680.766710  	0.103934 
1682.198368  	0.118379 
1683.630027  	0.126825 
1685.061685  	0.155359 
1686.493343  	0.170771 
1687.925001  	0.184066 
1689.356659  	0.209024 
1690.788318  	0.228882 
1692.219976  	0.251856 
1693.651634  	0.276915 
1695.083292  	0.291631 
1696.514950  	0.320011 
1697.946608  	0.336929 
1699.378267  	0.333212 
1700.809925  	0.329658 
1702.241583  	0.317498 
1703.673241  	0.301398 
1705.104899  	0.282785 
1706.536558  	0.257580 
1707.968216  	0.236204 
1709.399874  	0.219448 
1710.831532  	0.202013 
1712.263190  	0.186528 
1713.694849  	0.175299 
1715.126507  	0.162855 
1716.558165  	0.152121 
1717.989823  	0.144322 
1719.421481  	0.134642 
1720.853139  	0.131111 
1722.284798  	0.130236 
1723.716456  	0.129511 
1725.148114  	0.131760 
1726.579772  	0.133299 
1728.011430  	0.132758 
1729.443089  	0.130926 
1730.874747  	0.123746 
1732.306405  	0.115689 
1733.738063  	0.105534 
1735.169721  	0.082396 
1736.601379  	0.069583 
1738.033038  	0.058242 
1739.464696  	0.041286 
1740.896354  	0.028128 
1742.328012  	0.016595 
1743.759670  	0.005704 
1745.191329  	-0.001302 
1746.622987  	-0.008967 
1748.054645  	-0.013549 
1749.486303  	-0.017028 
1750.917961  	-0.022332 
1752.349620  	-0.023525 
1753.781278  	-0.026133 
1755.212936  	-0.028132 
1756.644594  	-0.027647 
1758.076252  	-0.030298 
1759.507910  	-0.030826 
1760.939569  	-0.030026 
1762.371227  	-0.031997 
1763.802885  	-0.031608 
1765.234543  	-0.031950 
1766.666201  	-0.032647 
1768.097860  	-0.031160 
1769.529518  	-0.032331 
1770.961176  	-0.032197 
1772.392834  	-0.030661 
1773.824492  	-0.032992 
1775.256150  	-0.032342 
1776.687809  	-0.032286 
1778.119467  	-0.033545 
1779.551125  	-0.032277 
1780.982783  	-0.032921 
1782.414441  	-0.033577 
1783.846100  	-0.032465 
1785.277758  	-0.033466 
1786.709416  	-0.033230 
1788.141074  	-0.032914 
1789.572732  	-0.033783 
1791.004391  	-0.032580 
1792.436049  	-0.033230 
1793.867707  	-0.034369 
1795.299365  	-0.033369 
1796.731023  	-0.034473 
1798.162681  	-0.034514 
1799.594340  	-0.033830 
1801.025998  	-0.034999 
1802.457656  	-0.034407 
1803.889314  	-0.034711 
1805.320972  	-0.035527 
1806.752631  	-0.034761 
1808.184289  	-0.035685 
1809.615947  	-0.035818 
1811.047605  	-0.034965 
1812.479263  	-0.036149 
1813.910922  	-0.035829 
1815.342580  	-0.035763 
1816.774238  	-0.036587 
1818.205896  	-0.035856 
1819.637554  	-0.036711 
1821.069212  	-0.037194 
1822.500871  	-0.036456 
1823.932529  	-0.037333 
1825.364187  	-0.036789 
1826.795845  	-0.036948 
1828.227503  	-0.038334 
1829.659162  	-0.037107 
1831.090820  	-0.037442 
1832.522478  	-0.038293 
1833.954136  	-0.037781 
1835.385794  	-0.038769 
1836.817452  	-0.038370 
1838.249111  	-0.038004 
1839.680769  	-0.039412 
1841.112427  	-0.038703 
1842.544085  	-0.038599 
1843.975743  	-0.039263 
1845.407402  	-0.038643 
1846.839060  	-0.039926 
1848.270718  	-0.039661 
1849.702376  	-0.038991 
1851.134034  	-0.040043 
1852.565693  	-0.039261 
1853.997351  	-0.039691 
1855.429009  	-0.040734 
1856.860667  	-0.039262 
1858.292325  	-0.039555 
1859.723983  	-0.039879 
1861.155642  	-0.039451 
1862.587300  	-0.040593 
1864.018958  	-0.039885 
1865.450616  	-0.039593 
1866.882274  	-0.040062 
1868.313933  	-0.038368 
1869.745591  	-0.039619 
1871.177249  	-0.040228 
1872.608907  	-0.038769 
1874.040565  	-0.039811 
1875.472224  	-0.039467 
1876.903882  	-0.038716 
1878.335540  	-0.039789 
1879.767198  	-0.038975 
1881.198856  	-0.039083 
1882.630514  	-0.039479 
1884.062173  	-0.038520 
1885.493831  	-0.039350 
1886.925489  	-0.038533 
1888.357147  	-0.037468 
1889.788805  	-0.038800 
1891.220464  	-0.037691 
1892.652122  	-0.037435 
1894.083780  	-0.038055 
1895.515438  	-0.036666 
1896.947096  	-0.037141 
1898.378754  	-0.036962 
1899.810413  	-0.036164 
1901.242071  	-0.037223 
1902.673729  	-0.036085 
1904.105387  	-0.035590 
1905.537045  	-0.036403 
1906.968704  	-0.035564 
1908.400362  	-0.036698 
1909.832020  	-0.036971 
1911.263678  	-0.036268 
1912.695336  	-0.038157 
1914.126995  	-0.037734 
1915.558653  	-0.037878 
1916.990311  	-0.039814 
1918.421969  	-0.038304 
1919.853627  	-0.038742 
1921.285285  	-0.039415 
1922.716944  	-0.038031 
1924.148602  	-0.039446 
1925.580260  	-0.038778 
1927.011918  	-0.037896 
1928.443576  	-0.040071 
1929.875235  	-0.039845 
1931.306893  	-0.040821 
1932.738551  	-0.041912 
1934.170209  	-0.040288 
1935.601867  	-0.041923 
1937.033525  	-0.041676 
1938.465184  	-0.039582 
1939.896842  	-0.040621 
1941.328500  	-0.039218 
1942.760158  	-0.039772 
1944.191816  	-0.042263 
1945.623475  	-0.040157 
1947.055133  	-0.040304 
1948.486791  	-0.039902 
1949.918449  	-0.038240 
1951.350107  	-0.040101 
1952.781766  	-0.039145 
1954.213424  	-0.039605 
1955.645082  	-0.042057 
1957.076740  	-0.039596 
1958.508398  	-0.040651 
1959.940056  	-0.041086 
1961.371715  	-0.037949 
1962.803373  	-0.039855 
1964.235031  	-0.037822 
1965.666689  	-0.035820 
1967.098347  	-0.039128 
1968.530006  	-0.037216 
1969.961664  	-0.038341 
1971.393322  	-0.039867 
1972.824980  	-0.036478 
1974.256638  	-0.039406 
1975.688297  	-0.038973 
1977.119955  	-0.035823 
1978.551613  	-0.039943 
1979.983271  	-0.040390 
1981.414929  	-0.040863 
1982.846587  	-0.041311 
1984.278246  	-0.038435 
1985.709904  	-0.040147 
1987.141562  	-0.039841 
1988.573220  	-0.038586 
1990.004878  	-0.041627 
1991.436537  	-0.039440 
1992.868195  	-0.038628 
1994.299853  	-0.040899 
1995.731511  	-0.038975 
1997.163169  	-0.040488 
1998.594827  	-0.040986 
2000.026486  	-0.039077 
2001.458144  	-0.041188 
2002.889802  	-0.038930 
2004.321460  	-0.037786 
2005.753118  	-0.040855 
2007.184777  	-0.037936 
2008.616435  	-0.037892 
2010.048093  	-0.038811 
2011.479751  	-0.036736 
2012.911409  	-0.039720 
2014.343068  	-0.039041 
2015.774726  	-0.037670 
2017.206384  	-0.040739 
2018.638042  	-0.038207 
2020.069700  	-0.038033 
2021.501358  	-0.039293 
2022.933017  	-0.037909 
2024.364675  	-0.041732 
2025.796333  	-0.040118 
2027.227991  	-0.036281 
2028.659649  	-0.039221 
2030.091308  	-0.036925 
2031.522966  	-0.035667 
2032.954624  	-0.037624 
2034.386282  	-0.035911 
2035.817940  	-0.038863 
2037.249599  	-0.039119 
2038.681257  	-0.035841 
2040.112915  	-0.038128 
2041.544573  	-0.038317 
2042.976231  	-0.038952 
2044.407889  	-0.040646 
2045.839548  	-0.037756 
2047.271206  	-0.038516 
2048.702864  	-0.039249 
2050.134522  	-0.037180 
2051.566180  	-0.038739 
2052.997839  	-0.038528 
2054.429497  	-0.038106 
2055.861155  	-0.039475 
2057.292813  	-0.038513 
2058.724471  	-0.039861 
2060.156129  	-0.040773 
2061.587788  	-0.038409 
2063.019446  	-0.039124 
2064.451104  	-0.039893 
2065.882762  	-0.040195 
2067.314420  	-0.041515 
2068.746079  	-0.039892 
2070.177737  	-0.039408 
2071.609395  	-0.040005 
2073.041053  	-0.039424 
2074.472711  	-0.040901 
2075.904370  	-0.040561 
2077.336028  	-0.039547 
2078.767686  	-0.041440 
2080.199344  	-0.041386 
2081.631002  	-0.040972 
2083.062660  	-0.041114 
2084.494319  	-0.039846 
2085.925977  	-0.040073 
2087.357635  	-0.039696 
2088.789293  	-0.039073 
2090.220951  	-0.040448 
2091.652610  	-0.040160 
2093.084268  	-0.040477 
2094.515926  	-0.041419 
2095.947584  	-0.040375 
2097.379242  	-0.041620 
2098.810901  	-0.041701 
2100.242559  	-0.039554 
2101.674217  	-0.040205 
2103.105875  	-0.039784 
2104.537533  	-0.039812 
2105.969191  	-0.041667 
2107.400850  	-0.040009 
2108.832508  	-0.039272 
2110.264166  	-0.040325 
2111.695824  	-0.039730 
2113.127482  	-0.040395 
2114.559141  	-0.040055 
2115.990799  	-0.039091 
2117.422457  	-0.040337 
2118.854115  	-0.040207 
2120.285773  	-0.040230 
2121.717431  	-0.040545 
2123.149090  	-0.038969 
2124.580748  	-0.039639 
2126.012406  	-0.040270 
2127.444064  	-0.038894 
2128.875722  	-0.039419 
2130.307381  	-0.039869 
2131.739039  	-0.039991 
2133.170697  	-0.039507 
2134.602355  	-0.037693 
2136.034013  	-0.039275 
2137.465672  	-0.039319 
2138.897330  	-0.036682 
2140.328988  	-0.038389 
2141.760646  	-0.038783 
2143.192304  	-0.037265 
2144.623962  	-0.037121 
2146.055621  	-0.035846 
2147.487279  	-0.037713 
2148.918937  	-0.038403 
2150.350595  	-0.035427 
2151.782253  	-0.036369 
2153.213912  	-0.035374 
2154.645570  	-0.035005 
2156.077228  	-0.039612 
2157.508886  	-0.038263 
2158.940544  	-0.036980 
2160.372202  	-0.035835 
2161.803861  	-0.030821 
2163.235519  	-0.034449 
2164.667177  	-0.038003 
2166.098835  	-0.036487 
2167.530493  	-0.037428 
2168.962152  	-0.036749 
2170.393810  	-0.037714 
2171.825468  	-0.039296 
2173.257126  	-0.036989 
2174.688784  	-0.038307 
2176.120443  	-0.038752 
2177.552101  	-0.036541 
2178.983759  	-0.038290 
2180.415417  	-0.037543 
2181.847075  	-0.036711 
2183.278733  	-0.038070 
2184.710392  	-0.035878 
2186.142050  	-0.036518 
2187.573708  	-0.037444 
2189.005366  	-0.035066 
2190.437024  	-0.036779 
2191.868683  	-0.038434 
2193.300341  	-0.037908 
2194.731999  	-0.037987 
2196.163657  	-0.036353 
2197.595315  	-0.037313 
2199.026974  	-0.039601 
2200.458632  	-0.038653 
2201.890290  	-0.038696 
2203.321948  	-0.038992 
2204.753606  	-0.038909 
2206.185264  	-0.039046 
2207.616923  	-0.037613 
2209.048581  	-0.038453 
2210.480239  	-0.039572 
2211.911897  	-0.038359 
2213.343555  	-0.038975 
2214.775214  	-0.038157 
2216.206872  	-0.036456 
2217.638530  	-0.037801 
2219.070188  	-0.038522 
2220.501846  	-0.038974 
2221.933504  	-0.038773 
2223.365163  	-0.037621 
2224.796821  	-0.039134 
2226.228479  	-0.038756 
2227.660137  	-0.037387 
2229.091795  	-0.039706 
2230.523454  	-0.040032 
2231.955112  	-0.039194 
2233.386770  	-0.039687 
2234.818428  	-0.039029 
2236.250086  	-0.039975 
2237.681745  	-0.040312 
2239.113403  	-0.038486 
2240.545061  	-0.038846 
2241.976719  	-0.039105 
2243.408377  	-0.039020 
2244.840035  	-0.039778 
2246.271694  	-0.039370 
2247.703352  	-0.039958 
2249.135010  	-0.039726 
2250.566668  	-0.037976 
2251.998326  	-0.039026 
2253.429985  	-0.039524 
2254.861643  	-0.038685 
2256.293301  	-0.039083 
2257.724959  	-0.038169 
2259.156617  	-0.038135 
2260.588276  	-0.039406 
2262.019934  	-0.038800 
2263.451592  	-0.038410 
2264.883250  	-0.038086 
2266.314908  	-0.037908 
2267.746566  	-0.039251 
2269.178225  	-0.039284 
2270.609883  	-0.038497 
2272.041541  	-0.037949 
2273.473199  	-0.037574 
2274.904857  	-0.039278 
2276.336516  	-0.040078 
2277.768174  	-0.039100 
2279.199832  	-0.039509 
2280.631490  	-0.039265 
2282.063148  	-0.038537 
2283.494806  	-0.039014 
2284.926465  	-0.038991 
2286.358123  	-0.038868 
2287.789781  	-0.038485 
2289.221439  	-0.037847 
2290.653097  	-0.038119 
2292.084756  	-0.037632 
2293.516414  	-0.036994 
2294.948072  	-0.037180 
2296.379730  	-0.036553 
2297.811388  	-0.036445 
2299.243047  	-0.036733 
2300.674705  	-0.035779 
2302.106363  	-0.035249 
2303.538021  	-0.035120 
2304.969679  	-0.034774 
2306.401337  	-0.034310 
2307.832996  	-0.032927 
2309.264654  	-0.032166 
2310.696312  	-0.031873 
2312.127970  	-0.030653 
2313.559628  	-0.030490 
2314.991287  	-0.030656 
2316.422945  	-0.029716 
2317.854603  	-0.028789 
2319.286261  	-0.027124 
2320.717919  	-0.025404 
2322.149577  	-0.024732 
2323.581236  	-0.024162 
2325.012894  	-0.024308 
2326.444552  	-0.024155 
2327.876210  	-0.022612 
2329.307868  	-0.021300 
2330.739527  	-0.020488 
2332.171185  	-0.020363 
2333.602843  	-0.021055 
2335.034501  	-0.021107 
2336.466159  	-0.020735 
2337.897818  	-0.020016 
2339.329476  	-0.019163 
2340.761134  	-0.018961 
2342.192792  	-0.018323 
2343.624450  	-0.018097 
2345.056108  	-0.019194 
2346.487767  	-0.021583 
2347.919425  	-0.025647 
2349.351083  	-0.027294 
2350.782741  	-0.024322 
2352.214399  	-0.020612 
2353.646058  	-0.018485 
2355.077716  	-0.016091 
2356.509374  	-0.014443 
2357.941032  	-0.013189 
2359.372690  	-0.012199 
2360.804349  	-0.012346 
2362.236007  	-0.012184 
2363.667665  	-0.012959 
2365.099323  	-0.014558 
2366.530981  	-0.015557 
2367.962639  	-0.017339 
2369.394298  	-0.019072 
2370.825956  	-0.020801 
2372.257614  	-0.023193 
2373.689272  	-0.024841 
2375.120930  	-0.026622 
2376.552589  	-0.028413 
2377.984247  	-0.029610 
2379.415905  	-0.031747 
2380.847563  	-0.033966 
2382.279221  	-0.035532 
2383.710879  	-0.037052 
2385.142538  	-0.037891 
2386.574196  	-0.038620 
2388.005854  	-0.039181 
2389.437512  	-0.038809 
2390.869170  	-0.039010 
2392.300829  	-0.039478 
2393.732487  	-0.039145 
2395.164145  	-0.039193 
2396.595803  	-0.039457 
2398.027461  	-0.039430 
2399.459120  	-0.039454 
2400.890778  	-0.039328 
2402.322436  	-0.039243 
2403.754094  	-0.039107 
2405.185752  	-0.039107 
2406.617410  	-0.039387 
2408.049069  	-0.039028 
2409.480727  	-0.038737 
2410.912385  	-0.038902 
2412.344043  	-0.038761 
2413.775701  	-0.039066 
2415.207360  	-0.039256 
2416.639018  	-0.038810 
2418.070676  	-0.039067 
2419.502334  	-0.039375 
2420.933992  	-0.039215 
2422.365651  	-0.039140 
2423.797309  	-0.038894 
2425.228967  	-0.039073 
2426.660625  	-0.039456 
2428.092283  	-0.039423 
2429.523941  	-0.039299 
2430.955600  	-0.038569 
2432.387258  	-0.038301 
2433.818916  	-0.039105 
2435.250574  	-0.038994 
2436.682232  	-0.038482 
2438.113891  	-0.038466 
2439.545549  	-0.038356 
2440.977207  	-0.038664 
2442.408865  	-0.038750 
2443.840523  	-0.038488 
2445.272181  	-0.038799 
2446.703840  	-0.038785 
2448.135498  	-0.038638 
2449.567156  	-0.038848 
2450.998814  	-0.038848 
2452.430472  	-0.039038 
2453.862131  	-0.038962 
2455.293789  	-0.038687 
2456.725447  	-0.038946 
2458.157105  	-0.038746 
2459.588763  	-0.038495 
2461.020422  	-0.038684 
2462.452080  	-0.038542 
2463.883738  	-0.038750 
2465.315396  	-0.038811 
2466.747054  	-0.038289 
2468.178712  	-0.038319 
2469.610371  	-0.038140 
2471.042029  	-0.037745 
2472.473687  	-0.037858 
2473.905345  	-0.037753 
2475.337003  	-0.037785 
2476.768662  	-0.037819 
2478.200320  	-0.037677 
2479.631978  	-0.037988 
2481.063636  	-0.037671 
2482.495294  	-0.037262 
2483.926953  	-0.037573 
2485.358611  	-0.037221 
2486.790269  	-0.037227 
2488.221927  	-0.037864 
2489.653585  	-0.037733 
2491.085243  	-0.037885 
2492.516902  	-0.038031 
2493.948560  	-0.037657 
2495.380218  	-0.037716 
2496.811876  	-0.037535 
2498.243534  	-0.037579 
2499.675193  	-0.038076 
2501.106851  	-0.037908 
2502.538509  	-0.038162 
2503.970167  	-0.038495 
2505.401825  	-0.037983 
2506.833483  	-0.038033 
2508.265142  	-0.038326 
2509.696800  	-0.038302 
2511.128458  	-0.038166 
2512.560116  	-0.037677 
2513.991774  	-0.037854 
2515.423433  	-0.038170 
2516.855091  	-0.037742 
2518.286749  	-0.037795 
2519.718407  	-0.037941 
2521.150065  	-0.037995 
2522.581724  	-0.038377 
2524.013382  	-0.038064 
2525.445040  	-0.037799 
2526.876698  	-0.038183 
2528.308356  	-0.038486 
2529.740014  	-0.038742 
2531.171673  	-0.038316 
2532.603331  	-0.037976 
2534.034989  	-0.038550 
2535.466647  	-0.038527 
2536.898305  	-0.038464 
2538.329964  	-0.038646 
2539.761622  	-0.038002 
2541.193280  	-0.037791 
2542.624938  	-0.037772 
2544.056596  	-0.037235 
2545.488254  	-0.037331 
2546.919913  	-0.037519 
2548.351571  	-0.037571 
2549.783229  	-0.037618 
2551.214887  	-0.037121 
2552.646545  	-0.037116 
2554.078204  	-0.037331 
2555.509862  	-0.037067 
2556.941520  	-0.036989 
2558.373178  	-0.036561 
2559.804836  	-0.036478 
2561.236495  	-0.037058 
2562.668153  	-0.036761 
2564.099811  	-0.036660 
2565.531469  	-0.036938 
2566.963127  	-0.036491 
2568.394785  	-0.036486 
2569.826444  	-0.036516 
2571.258102  	-0.036278 
2572.689760  	-0.036722 
2574.121418  	-0.036761 
2575.553076  	-0.036503 
2576.984735  	-0.036535 
2578.416393  	-0.036416 
2579.848051  	-0.036822 
2581.279709  	-0.036909 
2582.711367  	-0.036339 
2584.143026  	-0.036594 
2585.574684  	-0.036681 
2587.006342  	-0.036192 
2588.438000  	-0.036022 
2589.869658  	-0.035689 
2591.301316  	-0.035573 
2592.732975  	-0.035590 
2594.164633  	-0.035418 
2595.596291  	-0.035994 
2597.027949  	-0.036351 
2598.459607  	-0.035952 
2599.891266  	-0.036042 
2601.322924  	-0.036271 
2602.754582  	-0.036302 
2604.186240  	-0.036229 
2605.617898  	-0.035845 
2607.049556  	-0.035768 
2608.481215  	-0.035873 
2609.912873  	-0.035779 
2611.344531  	-0.035836 
2612.776189  	-0.035834 
2614.207847  	-0.035776 
2615.639506  	-0.035735 
2617.071164  	-0.035589 
2618.502822  	-0.035541 
2619.934480  	-0.035282 
2621.366138  	-0.035040 
2622.797797  	-0.035322 
2624.229455  	-0.035553 
2625.661113  	-0.035669 
2627.092771  	-0.035795 
2628.524429  	-0.035648 
2629.956087  	-0.035510 
2631.387746  	-0.035405 
2632.819404  	-0.035321 
2634.251062  	-0.035343 
2635.682720  	-0.035208 
2637.114378  	-0.035136 
2638.546037  	-0.035032 
2639.977695  	-0.034840 
2641.409353  	-0.035077 
2642.841011  	-0.035150 
2644.272669  	-0.034856 
2645.704328  	-0.034809 
2647.135986  	-0.034697 
2648.567644  	-0.034693 
2649.999302  	-0.034867 
2651.430960  	-0.034640 
2652.862618  	-0.034537 
2654.294277  	-0.034609 
2655.725935  	-0.034442 
2657.157593  	-0.034448 
2658.589251  	-0.034375 
2660.020909  	-0.034026 
2661.452568  	-0.033716 
2662.884226  	-0.033390 
2664.315884  	-0.033346 
2665.747542  	-0.033436 
2667.179200  	-0.033205 
2668.610858  	-0.033028 
2670.042517  	-0.032942 
2671.474175  	-0.032886 
2672.905833  	-0.032852 
2674.337491  	-0.032520 
2675.769149  	-0.032363 
2677.200808  	-0.032431 
2678.632466  	-0.032188 
2680.064124  	-0.031966 
2681.495782  	-0.031673 
2682.927440  	-0.031265 
2684.359099  	-0.031224 
2685.790757  	-0.031125 
2687.222415  	-0.030914 
2688.654073  	-0.030860 
2690.085731  	-0.030566 
2691.517389  	-0.030148 
2692.949048  	-0.029818 
2694.380706  	-0.029607 
2695.812364  	-0.029552 
2697.244022  	-0.029290 
2698.675680  	-0.029016 
2700.107339  	-0.028807 
2701.538997  	-0.028301 
2702.970655  	-0.028017 
2704.402313  	-0.028026 
2705.833971  	-0.027951 
2707.265630  	-0.027889 
2708.697288  	-0.027608 
2710.128946  	-0.027324 
2711.560604  	-0.027139 
2712.992262  	-0.026670 
2714.423920  	-0.026549 
2715.855579  	-0.026648 
2717.287237  	-0.026314 
2718.718895  	-0.026083 
2720.150553  	-0.025767 
2721.582211  	-0.025323 
2723.013870  	-0.025331 
2724.445528  	-0.025074 
2725.877186  	-0.024482 
2727.308844  	-0.024193 
2728.740502  	-0.023959 
2730.172160  	-0.023776 
2731.603819  	-0.023568 
2733.035477  	-0.023263 
2734.467135  	-0.023022 
2735.898793  	-0.022568 
2737.330451  	-0.022302 
2738.762110  	-0.022326 
2740.193768  	-0.022037 
2741.625426  	-0.021883 
2743.057084  	-0.021863 
2744.488742  	-0.021700 
2745.920401  	-0.021776 
2747.352059  	-0.021625 
2748.783717  	-0.021390 
2750.215375  	-0.021490 
2751.647033  	-0.021241 
2753.078691  	-0.021084 
2754.510350  	-0.021199 
2755.942008  	-0.020876 
2757.373666  	-0.020714 
2758.805324  	-0.020646 
2760.236982  	-0.020308 
2761.668641  	-0.020332 
2763.100299  	-0.020225 
2764.531957  	-0.019852 
2765.963615  	-0.019854 
2767.395273  	-0.019696 
2768.826931  	-0.019221 
2770.258590  	-0.018739 
2771.690248  	-0.018228 
2773.121906  	-0.017923 
2774.553564  	-0.017637 
2775.985222  	-0.017191 
2777.416881  	-0.016669 
2778.848539  	-0.015999 
2780.280197  	-0.015414 
2781.711855  	-0.014617 
2783.143513  	-0.013383 
2784.575172  	-0.012398 
2786.006830  	-0.011524 
2787.438488  	-0.010388 
2788.870146  	-0.009223 
2790.301804  	-0.007933 
2791.733462  	-0.006601 
2793.165121  	-0.005390 
2794.596779  	-0.004419 
2796.028437  	-0.003901 
2797.460095  	-0.003557 
2798.891753  	-0.003597 
2800.323412  	-0.004243 
2801.755070  	-0.004794 
2803.186728  	-0.005400 
2804.618386  	-0.006342 
2806.050044  	-0.007112 
2807.481703  	-0.007831 
2808.913361  	-0.008543 
2810.345019  	-0.009146 
2811.776677  	-0.009693 
2813.208335  	-0.009784 
2814.639993  	-0.009607 
2816.071652  	-0.009255 
2817.503310  	-0.008411 
2818.934968  	-0.007557 
2820.366626  	-0.006461 
2821.798284  	-0.004812 
2823.229943  	-0.003268 
2824.661601  	-0.001508 
2826.093259  	0.000722 
2827.524917  	0.003209 
2828.956575  	0.006344 
2830.388233  	0.009594 
2831.819892  	0.012633 
2833.251550  	0.016263 
2834.683208  	0.020395 
2836.114866  	0.024659 
2837.546524  	0.029044 
2838.978183  	0.033521 
2840.409841  	0.038305 
2841.841499  	0.043140 
2843.273157  	0.047766 
2844.704815  	0.052415 
2846.136474  	0.056937 
2847.568132  	0.061160 
2848.999790  	0.064849 
2850.431448  	0.067668 
2851.863106  	0.069920 
2853.294764  	0.071607 
2854.726423  	0.072493 
2856.158081  	0.073035 
2857.589739  	0.073217 
2859.021397  	0.072788 
2860.453055  	0.072171 
2861.884714  	0.071441 
2863.316372  	0.070323 
2864.748030  	0.068712 
2866.179688  	0.066662 
2867.611346  	0.064342 
2869.043005  	0.061632 
2870.474663  	0.058531 
2871.906321  	0.055060 
2873.337979  	0.050967 
2874.769637  	0.046749 
2876.201295  	0.042736 
2877.632954  	0.038585 
2879.064612  	0.034637 
2880.496270  	0.031041 
2881.927928  	0.027808 
2883.359586  	0.025448 
2884.791245  	0.023709 
2886.222903  	0.022348 
2887.654561  	0.021583 
2889.086219  	0.021329 
2890.517877  	0.021590 
2891.949535  	0.022012 
2893.381194  	0.022381 
2894.812852  	0.023078 
2896.244510  	0.023744 
2897.676168  	0.024319 
2899.107826  	0.025383 
2900.539485  	0.026547 
2901.971143  	0.027487 
2903.402801  	0.028538 
2904.834459  	0.029858 
2906.266117  	0.031308 
2907.697776  	0.032446 
2909.129434  	0.033516 
2910.561092  	0.035081 
2911.992750  	0.036490 
2913.424408  	0.037369 
2914.856066  	0.038279 
2916.287725  	0.039088 
2917.719383  	0.039553 
2919.151041  	0.039989 
2920.582699  	0.040366 
2922.014357  	0.040512 
2923.446016  	0.040783 
2924.877674  	0.041541 
2926.309332  	0.042613 
2927.740990  	0.043848 
2929.172648  	0.045237 
2930.604306  	0.046731 
2932.035965  	0.048505 
2933.467623  	0.050349 
2934.899281  	0.051905 
2936.330939  	0.053407 
2937.762597  	0.054543 
2939.194256  	0.054937 
2940.625914  	0.055146 
2942.057572  	0.055136 
2943.489230  	0.054474 
2944.920888  	0.053293 
2946.352547  	0.051564 
2947.784205  	0.049464 
2949.215863  	0.047255 
2950.647521  	0.044719 
2952.079179  	0.041965 
2953.510837  	0.038990 
2954.942496  	0.035743 
2956.374154  	0.032687 
2957.805812  	0.029617 
2959.237470  	0.026217 
2960.669128  	0.022748 
2962.100787  	0.019195 
2963.532445  	0.015741 
2964.964103  	0.012393 
2966.395761  	0.008748 
2967.827419  	0.005038 
2969.259078  	0.001491 
2970.690736  	-0.001794 
2972.122394  	-0.004729 
2973.554052  	-0.007707 
2974.985710  	-0.010600 
2976.417368  	-0.013085 
2977.849027  	-0.015348 
2979.280685  	-0.017430 
2980.712343  	-0.019453 
2982.144001  	-0.021318 
2983.575659  	-0.022813 
2985.007318  	-0.024198 
2986.438976  	-0.025382 
2987.870634  	-0.026336 
2989.302292  	-0.027255 
2990.733950  	-0.027996 
2992.165608  	-0.028676 
2993.597267  	-0.029115 
2995.028925  	-0.029326 
2996.460583  	-0.029822 
2997.892241  	-0.029912 
2999.323899  	-0.029521 
3000.755558  	-0.029564 
3002.187216  	-0.029624 
3003.618874  	-0.029622 
3005.050532  	-0.029769 
3006.482190  	-0.029642 
3007.913849  	-0.029729 
3009.345507  	-0.029843 
3010.777165  	-0.029431 
3012.208823  	-0.029352 
3013.640481  	-0.029522 
3015.072139  	-0.029390 
3016.503798  	-0.029272 
3017.935456  	-0.029097 
3019.367114  	-0.029003 
3020.798772  	-0.028915 
3022.230430  	-0.028380 
3023.662089  	-0.027710 
3025.093747  	-0.026952 
3026.525405  	-0.026112 
3027.957063  	-0.025314 
3029.388721  	-0.024234 
3030.820380  	-0.023369 
3032.252038  	-0.022896 
3033.683696  	-0.022304 
3035.115354  	-0.022048 
3036.547012  	-0.021989 
3037.978670  	-0.021697 
3039.410329  	-0.021558 
3040.841987  	-0.021399 
3042.273645  	-0.021369 
3043.705303  	-0.021691 
3045.136961  	-0.021770 
3046.568620  	-0.021721 
3048.000278  	-0.021681 
3049.431936  	-0.021730 
3050.863594  	-0.022288 
3052.295252  	-0.022559 
3053.726910  	-0.022321 
3055.158569  	-0.022421 
3056.590227  	-0.022550 
3058.021885  	-0.022518 
3059.453543  	-0.022630 
3060.885201  	-0.022812 
3062.316860  	-0.023130 
3063.748518  	-0.023396 
3065.180176  	-0.023733 
3066.611834  	-0.024406 
3068.043492  	-0.025029 
3069.475151  	-0.025796 
3070.906809  	-0.026594 
3072.338467  	-0.026914 
3073.770125  	-0.027421 
3075.201783  	-0.028124 
3076.633441  	-0.028509 
3078.065100  	-0.029052 
3079.496758  	-0.029663 
3080.928416  	-0.029872 
3082.360074  	-0.029907 
3083.791732  	-0.030241 
3085.223391  	-0.030829 
3086.655049  	-0.030960 
3088.086707  	-0.030883 
3089.518365  	-0.031019 
3090.950023  	-0.030814 
3092.381682  	-0.030815 
3093.813340  	-0.031156 
3095.244998  	-0.030767 
3096.676656  	-0.030176 
3098.108314  	-0.029767 
3099.539972  	-0.029151 
3100.971631  	-0.028801 
3102.403289  	-0.028513 
3103.834947  	-0.028067 
3105.266605  	-0.027658 
3106.698263  	-0.026964 
3108.129922  	-0.026441 
3109.561580  	-0.026103 
3110.993238  	-0.025405 
3112.424896  	-0.024906 
3113.856554  	-0.024502 
3115.288212  	-0.023896 
3116.719871  	-0.023508 
3118.151529  	-0.023137 
3119.583187  	-0.022938 
3121.014845  	-0.022844 
3122.446503  	-0.022428 
3123.878162  	-0.022381 
3125.309820  	-0.022638 
3126.741478  	-0.022905 
3128.173136  	-0.023689 
3129.604794  	-0.024414 
3131.036453  	-0.024978 
3132.468111  	-0.025887 
3133.899769  	-0.026754 
3135.331427  	-0.027619 
3136.763085  	-0.028258 
3138.194743  	-0.028655 
3139.626402  	-0.029573 
3141.058060  	-0.030191 
3142.489718  	-0.030215 
3143.921376  	-0.030709 
3145.353034  	-0.031260 
3146.784693  	-0.031439 
3148.216351  	-0.031455 
3149.648009  	-0.031399 
3151.079667  	-0.031563 
3152.511325  	-0.031464 
3153.942983  	-0.031154 
3155.374642  	-0.031300 
3156.806300  	-0.031284 
3158.237958  	-0.030960 
3159.669616  	-0.030663 
3161.101274  	-0.030292 
3162.532933  	-0.030102 
3163.964591  	-0.029725 
3165.396249  	-0.029163 
3166.827907  	-0.028913 
3168.259565  	-0.028330 
3169.691224  	-0.027686 
3171.122882  	-0.027328 
3172.554540  	-0.026595 
3173.986198  	-0.026209 
3175.417856  	-0.026080 
3176.849514  	-0.025223 
3178.281173  	-0.024310 
3179.712831  	-0.023388 
3181.144489  	-0.022433 
3182.576147  	-0.022065 
3184.007805  	-0.021456 
3185.439464  	-0.020469 
3186.871122  	-0.019735 
3188.302780  	-0.018981 
3189.734438  	-0.018558 
3191.166096  	-0.018523 
3192.597755  	-0.018537 
3194.029413  	-0.019046 
3195.461071  	-0.019702 
3196.892729  	-0.020102 
3198.324387  	-0.020512 
3199.756045  	-0.020797 
3201.187704  	-0.021136 
3202.619362  	-0.021569 
3204.051020  	-0.021796 
3205.482678  	-0.021830 
3206.914336  	-0.021464 
3208.345995  	-0.021089 
3209.777653  	-0.021278 
3211.209311  	-0.021493 
3212.640969  	-0.021302 
3214.072627  	-0.020814 
3215.504285  	-0.020361 
3216.935944  	-0.019967 
3218.367602  	-0.019171 
3219.799260  	-0.018510 
3221.230918  	-0.018163 
3222.662576  	-0.017406 
3224.094235  	-0.016826 
3225.525893  	-0.016451 
3226.957551  	-0.015573 
3228.389209  	-0.014787 
3229.820867  	-0.014031 
3231.252526  	-0.013061 
3232.684184  	-0.012456 
3234.115842  	-0.011769 
3235.547500  	-0.010831 
3236.979158  	-0.010055 
3238.410816  	-0.009127 
3239.842475  	-0.008262 
3241.274133  	-0.007698 
3242.705791  	-0.007000 
3244.137449  	-0.006044 
3245.569107  	-0.004904 
3247.000766  	-0.003823 
3248.432424  	-0.002909 
3249.864082  	-0.002140 
3251.295740  	-0.001633 
3252.727398  	-0.000932 
3254.159057  	0.000067 
3255.590715  	0.000994 
3257.022373  	0.002057 
3258.454031  	0.002925 
3259.885689  	0.003505 
3261.317347  	0.004477 
3262.749006  	0.005495 
3264.180664  	0.006419 
3265.612322  	0.007429 
3267.043980  	0.007933 
3268.475638  	0.008516 
3269.907297  	0.009899 
3271.338955  	0.011247 
3272.770613  	0.012059 
3274.202271  	0.012740 
3275.633929  	0.013763 
3277.065587  	0.014927 
3278.497246  	0.015838 
3279.928904  	0.016851 
3281.360562  	0.017700 
3282.792220  	0.018334 
3284.223878  	0.019731 
3285.655537  	0.021212 
3287.087195  	0.022102 
3288.518853  	0.023144 
3289.950511  	0.023946 
3291.382169  	0.024577 
3292.813828  	0.025666 
3294.245486  	0.026403 
3295.677144  	0.027035 
3297.108802  	0.028097 
3298.540460  	0.028560 
3299.972118  	0.028622 
3301.403777  	0.029279 
3302.835435  	0.030183 
3304.267093  	0.030849 
3305.698751  	0.031333 
3307.130409  	0.031702 
3308.562068  	0.031968 
3309.993726  	0.032346 
3311.425384  	0.032830 
3312.857042  	0.033072 
3314.288700  	0.033347 
3315.720359  	0.033724 
3317.152017  	0.033717 
3318.583675  	0.033622 
3320.015333  	0.033534 
3321.446991  	0.033198 
3322.878649  	0.032816 
3324.310308  	0.032028 
3325.741966  	0.030985 
3327.173624  	0.030405 
3328.605282  	0.029605 
3330.036940  	0.028268 
3331.468599  	0.027101 
3332.900257  	0.026044 
3334.331915  	0.024836 
3335.763573  	0.023315 
3337.195231  	0.021320 
3338.626889  	0.019202 
3340.058548  	0.017277 
3341.490206  	0.015490 
3342.921864  	0.013583 
3344.353522  	0.011480 
3345.785180  	0.009257 
3347.216839  	0.006853 
3348.648497  	0.004800 
3350.080155  	0.003181 
3351.511813  	0.001046 
3352.943471  	-0.001390 
3354.375130  	-0.003476 
3355.806788  	-0.005329 
3357.238446  	-0.006820 
3358.670104  	-0.008294 
3360.101762  	-0.010169 
3361.533420  	-0.011901 
3362.965079  	-0.013253 
3364.396737  	-0.014547 
3365.828395  	-0.016032 
3367.260053  	-0.017412 
3368.691711  	-0.018334 
3370.123370  	-0.019357 
3371.555028  	-0.020490 
3372.986686  	-0.021287 
3374.418344  	-0.022052 
3375.850002  	-0.022588 
3377.281660  	-0.023036 
3378.713319  	-0.023847 
3380.144977  	-0.024334 
3381.576635  	-0.024651 
3383.008293  	-0.025157 
3384.439951  	-0.025411 
3385.871610  	-0.025948 
3387.303268  	-0.026504 
3388.734926  	-0.026578 
3390.166584  	-0.027044 
3391.598242  	-0.027478 
3393.029901  	-0.027571 
3394.461559  	-0.027934 
3395.893217  	-0.027890 
3397.324875  	-0.027805 
3398.756533  	-0.028410 
3400.188191  	-0.028913 
3401.619850  	-0.029381 
3403.051508  	-0.029756 
3404.483166  	-0.029707 
3405.914824  	-0.029972 
3407.346482  	-0.030432 
3408.778141  	-0.030853 
3410.209799  	-0.031458 
3411.641457  	-0.031772 
3413.073115  	-0.031836 
3414.504773  	-0.031861 
3415.936432  	-0.031968 
3417.368090  	-0.032426 
3418.799748  	-0.032467 
3420.231406  	-0.032131 
3421.663064  	-0.032417 
3423.094722  	-0.032834 
3424.526381  	-0.032979 
3425.958039  	-0.033155 
3427.389697  	-0.033335 
3428.821355  	-0.033466 
3430.253013  	-0.033427 
3431.684672  	-0.033463 
3433.116330  	-0.033488 
3434.547988  	-0.033274 
3435.979646  	-0.033644 
3437.411304  	-0.034205 
3438.842962  	-0.034097 
3440.274621  	-0.033952 
3441.706279  	-0.033710 
3443.137937  	-0.033631 
3444.569595  	-0.034197 
3446.001253  	-0.034438 
3447.432912  	-0.034798 
3448.864570  	-0.035461 
3450.296228  	-0.035404 
3451.727886  	-0.035552 
3453.159544  	-0.035696 
3454.591203  	-0.035200 
3456.022861  	-0.035436 
3457.454519  	-0.035757 
3458.886177  	-0.035431 
3460.317835  	-0.035680 
3461.749493  	-0.036015 
3463.181152  	-0.036019 
3464.612810  	-0.036193 
3466.044468  	-0.036181 
3467.476126  	-0.036106 
3468.907784  	-0.036021 
3470.339443  	-0.035889 
3471.771101  	-0.035988 
3473.202759  	-0.035958 
3474.634417  	-0.036036 
3476.066075  	-0.036261 
3477.497734  	-0.036028 
3478.929392  	-0.035846 
3480.361050  	-0.035649 
3481.792708  	-0.035344 
3483.224366  	-0.035715 
3484.656024  	-0.036002 
3486.087683  	-0.035911 
3487.519341  	-0.036068 
3488.950999  	-0.036034 
3490.382657  	-0.036016 
3491.814315  	-0.036216 
3493.245974  	-0.036240 
3494.677632  	-0.036366 
3496.109290  	-0.036351 
3497.540948  	-0.036142 
3498.972606  	-0.036032 
3500.404264  	-0.035647 
3501.835923  	-0.035579 
3503.267581  	-0.035970 
3504.699239  	-0.035866 
3506.130897  	-0.035871 
3507.562555  	-0.036142 
3508.994214  	-0.036149 
3510.425872  	-0.036184 
3511.857530  	-0.036190 
3513.289188  	-0.036310 
3514.720846  	-0.036606 
3516.152505  	-0.036525 
3517.584163  	-0.036445 
3519.015821  	-0.036506 
3520.447479  	-0.036310 
3521.879137  	-0.036257 
3523.310795  	-0.036481 
3524.742454  	-0.036572 
3526.174112  	-0.036201 
3527.605770  	-0.035897 
3529.037428  	-0.036491 
3530.469086  	-0.037029 
3531.900745  	-0.037029 
3533.332403  	-0.037190 
3534.764061  	-0.037121 
3536.195719  	-0.037080 
3537.627377  	-0.037332 
3539.059035  	-0.037102 
3540.490694  	-0.037321 
3541.922352  	-0.037986 
3543.354010  	-0.037557 
3544.785668  	-0.036986 
3546.217326  	-0.037499 
3547.648985  	-0.038223 
3549.080643  	-0.038575 
3550.512301  	-0.038465 
3551.943959  	-0.038024 
3553.375617  	-0.037808 
3554.807276  	-0.038171 
3556.238934  	-0.038651 
3557.670592  	-0.038645 
3559.102250  	-0.038656 
3560.533908  	-0.038917 
3561.965566  	-0.038806 
3563.397225  	-0.038713 
3564.828883  	-0.038360 
3566.260541  	-0.037573 
3567.692199  	-0.038281 
3569.123857  	-0.039349 
3570.555516  	-0.039222 
3571.987174  	-0.039554 
3573.418832  	-0.039854 
3574.850490  	-0.039509 
3576.282148  	-0.039470 
3577.713807  	-0.039929 
3579.145465  	-0.040754 
3580.577123  	-0.041079 
3582.008781  	-0.040374 
3583.440439  	-0.039921 
3584.872097  	-0.039632 
3586.303756  	-0.039114 
3587.735414  	-0.039832 
3589.167072  	-0.041140 
3590.598730  	-0.041011 
3592.030388  	-0.040425 
3593.462047  	-0.039955 
3594.893705  	-0.039770 
3596.325363  	-0.040092 
3597.757021  	-0.040534 
3599.188679  	-0.040505 
3600.620337  	-0.040454 
3602.051996  	-0.041003 
3603.483654  	-0.041349 
3604.915312  	-0.041590 
3606.346970  	-0.041969 
3607.778628  	-0.041528 
3609.210287  	-0.041439 
3610.641945  	-0.042124 
3612.073603  	-0.041474 
3613.505261  	-0.041057 
3614.936919  	-0.041860 
3616.368578  	-0.041490 
3617.800236  	-0.040723 
3619.231894  	-0.041011 
3620.663552  	-0.042018 
3622.095210  	-0.042544 
3623.526868  	-0.042145 
3624.958527  	-0.041784 
3626.390185  	-0.041351 
3627.821843  	-0.039951 
3629.253501  	-0.040013 
3630.685159  	-0.042223 
3632.116818  	-0.041970 
3633.548476  	-0.041842 
3634.980134  	-0.042554 
3636.411792  	-0.042925 
3637.843450  	-0.043295 
3639.275109  	-0.043407 
3640.706767  	-0.043192 
3642.138425  	-0.043277 
3643.570083  	-0.043465 
3645.001741  	-0.043369 
3646.433399  	-0.042510 
3647.865058  	-0.041162 
3649.296716  	-0.040715 
3650.728374  	-0.041421 
3652.160032  	-0.043691 
3653.591690  	-0.044366 
3655.023349  	-0.043257 
3656.455007  	-0.043207 
3657.886665  	-0.044545 
3659.318323  	-0.044544 
3660.749981  	-0.044384 
3662.181639  	-0.044389 
3663.613298  	-0.044514 
3665.044956  	-0.045033 
3666.476614  	-0.044918 
3667.908272  	-0.044038 
3669.339930  	-0.043051 
3670.771589  	-0.043247 
3672.203247  	-0.044361 
3673.634905  	-0.043587 
3675.066563  	-0.042623 
3676.498221  	-0.044970 
3677.929880  	-0.045325 
3679.361538  	-0.044725 
3680.793196  	-0.045188 
3682.224854  	-0.045170 
3683.656512  	-0.045221 
3685.088170  	-0.045122 
3686.519829  	-0.043805 
3687.951487  	-0.043367 
3689.383145  	-0.044804 
3690.814803  	-0.045136 
3692.246461  	-0.045332 
3693.678120  	-0.045662 
3695.109778  	-0.045117 
3696.541436  	-0.044605 
3697.973094  	-0.044658 
3699.404752  	-0.044424 
3700.836411  	-0.043981 
3702.268069  	-0.044531 
3703.699727  	-0.045306 
3705.131385  	-0.045132 
3706.563043  	-0.044802 
3707.994701  	-0.044329 
3709.426360  	-0.043705 
3710.858018  	-0.043640 
3712.289676  	-0.043931 
3713.721334  	-0.045097 
3715.152992  	-0.046219 
3716.584651  	-0.045722 
3718.016309  	-0.044925 
3719.447967  	-0.044950 
3720.879625  	-0.044362 
3722.311283  	-0.043404 
3723.742941  	-0.043560 
3725.174600  	-0.044028 
3726.606258  	-0.044217 
3728.037916  	-0.044468 
3729.469574  	-0.044306 
3730.901232  	-0.043763 
3732.332891  	-0.043581 
3733.764549  	-0.043067 
3735.196207  	-0.041689 
3736.627865  	-0.043046 
3738.059523  	-0.045095 
3739.491182  	-0.044773 
3740.922840  	-0.045076 
3742.354498  	-0.044760 
3743.786156  	-0.042717 
3745.217814  	-0.044264 
3746.649472  	-0.045960 
3748.081131  	-0.044180 
3749.512789  	-0.043787 
3750.944447  	-0.044272 
3752.376105  	-0.044290 
3753.807763  	-0.046154 
3755.239422  	-0.046212 
3756.671080  	-0.045321 
3758.102738  	-0.045470 
3759.534396  	-0.045437 
3760.966054  	-0.045821 
3762.397712  	-0.046363 
3763.829371  	-0.045546 
3765.261029  	-0.044980 
3766.692687  	-0.045357 
3768.124345  	-0.045180 
3769.556003  	-0.045016 
3770.987662  	-0.045496 
3772.419320  	-0.045939 
3773.850978  	-0.045872 
3775.282636  	-0.045544 
3776.714294  	-0.045467 
3778.145953  	-0.045105 
3779.577611  	-0.044658 
3781.009269  	-0.045113 
3782.440927  	-0.045108 
3783.872585  	-0.044631 
3785.304243  	-0.044780 
3786.735902  	-0.045202 
3788.167560  	-0.045367 
3789.599218  	-0.045064 
3791.030876  	-0.044786 
3792.462534  	-0.045447 
3793.894193  	-0.045814 
3795.325851  	-0.045004 
3796.757509  	-0.044199 
3798.189167  	-0.044014 
3799.620825  	-0.043526 
3801.052484  	-0.042856 
3802.484142  	-0.044053 
3803.915800  	-0.045206 
3805.347458  	-0.044286 
3806.779116  	-0.043866 
3808.210774  	-0.045471 
3809.642433  	-0.045324 
3811.074091  	-0.044543 
3812.505749  	-0.044679 
3813.937407  	-0.044166 
3815.369065  	-0.043304 
3816.800724  	-0.044239 
3818.232382  	-0.044230 
3819.664040  	-0.042643 
3821.095698  	-0.042644 
3822.527356  	-0.045233 
3823.959014  	-0.045075 
3825.390673  	-0.044074 
3826.822331  	-0.044164 
3828.253989  	-0.044504 
3829.685647  	-0.044085 
3831.117305  	-0.043572 
3832.548964  	-0.043538 
3833.980622  	-0.043896 
3835.412280  	-0.043850 
3836.843938  	-0.043355 
3838.275596  	-0.043225 
3839.707255  	-0.043351 
3841.138913  	-0.043593 
3842.570571  	-0.044078 
3844.002229  	-0.044453 
3845.433887  	-0.044728 
3846.865545  	-0.044583 
3848.297204  	-0.044181 
3849.728862  	-0.044060 
3851.160520  	-0.043192 
3852.592178  	-0.041517 
3854.023836  	-0.042798 
3855.455495  	-0.045099 
3856.887153  	-0.045113 
3858.318811  	-0.045176 
3859.750469  	-0.044523 
3861.182127  	-0.043824 
3862.613786  	-0.043779 
3864.045444  	-0.043024 
3865.477102  	-0.043046 
3866.908760  	-0.044220 
3868.340418  	-0.043454 
3869.772076  	-0.042469 
3871.203735  	-0.043820 
3872.635393  	-0.043805 
3874.067051  	-0.043316 
3875.498709  	-0.044254 
3876.930367  	-0.044320 
3878.362026  	-0.043465 
3879.793684  	-0.043212 
3881.225342  	-0.043889 
3882.657000  	-0.044121 
3884.088658  	-0.043221 
3885.520316  	-0.042323 
3886.951975  	-0.043501 
3888.383633  	-0.044243 
3889.815291  	-0.043489 
3891.246949  	-0.043248 
3892.678607  	-0.044016 
3894.110266  	-0.044112 
3895.541924  	-0.043955 
3896.973582  	-0.043524 
3898.405240  	-0.042722 
3899.836898  	-0.042692 
3901.268557  	-0.043154 
3902.700215  	-0.042982 
3904.131873  	-0.043075 
3905.563531  	-0.043640 
3906.995189  	-0.043991 
3908.426847  	-0.044244 
3909.858506  	-0.044292 
3911.290164  	-0.044277 
3912.721822  	-0.044493 
3914.153480  	-0.044345 
3915.585138  	-0.043645 
3917.016797  	-0.043182 
3918.448455  	-0.043287 
3919.880113  	-0.043432 
3921.311771  	-0.043612 
3922.743429  	-0.043548 
3924.175088  	-0.043146 
3925.606746  	-0.043194 
3927.038404  	-0.043437 
3928.470062  	-0.043248 
3929.901720  	-0.043127 
3931.333378  	-0.042929 
3932.765037  	-0.042782 
3934.196695  	-0.043319 
3935.628353  	-0.043366 
3937.060011  	-0.042974 
3938.491669  	-0.043219 
3939.923328  	-0.043264 
3941.354986  	-0.042856 
3942.786644  	-0.042869 
3944.218302  	-0.042950 
3945.649960  	-0.043047 
3947.081618  	-0.043416 
3948.513277  	-0.043520 
3949.944935  	-0.043287 
3951.376593  	-0.043069 
3952.808251  	-0.043084 
3954.239909  	-0.043224 
3955.671568  	-0.042987 
3957.103226  	-0.042877 
3958.534884  	-0.043340 
3959.966542  	-0.043405 
3961.398200  	-0.042906 
3962.829859  	-0.042686 
3964.261517  	-0.042826 
3965.693175  	-0.042915 
3967.124833  	-0.042887 
3968.556491  	-0.042726 
3969.988149  	-0.042385 
3971.419808  	-0.042434 
3972.851466  	-0.042979 
3974.283124  	-0.042938 
3975.714782  	-0.042519 
3977.146440  	-0.042587 
3978.578099  	-0.042569 
3980.009757  	-0.042527 
3981.441415  	-0.042749 
3982.873073  	-0.042539 
3984.304731  	-0.042284 
3985.736389  	-0.042488 
3987.168048  	-0.042535 
3988.599706  	-0.042260 
3990.031364  	-0.041999 
3991.463022  	-0.042117 
3992.894680  	-0.042384 
3994.326339  	-0.042414 
3995.757997  	-0.042719 
3997.189655  	-0.042901 
3998.621313  	-0.042441 
4000.052971  	-0.042370 