##TITLE=No Description
##DATA TYPE=INFRARED SPECTRUM
##XUNITS=1/CM
##YUNITS=%T
399.432634  	89.570754 
400.864292  	85.787924 
402.295950  	88.065010 
403.727608  	84.697396 
405.159267  	78.781678 
406.590925  	82.734313 
408.022583  	87.357734 
409.454241  	84.946612 
410.885899  	83.892332 
412.317558  	86.227397 
413.749216  	88.728001 
415.180874  	88.464261 
416.612532  	86.939028 
418.044190  	86.047206 
419.475848  	86.897835 
420.907507  	90.100459 
422.339165  	90.541046 
423.770823  	87.323115 
425.202481  	86.744356 
426.634139  	90.753963 
428.065798  	94.299638 
429.497456  	94.055933 
430.929114  	92.492932 
432.360772  	92.008705 
433.792430  	91.009968 
435.224089  	90.455184 
436.655747  	92.249774 
438.087405  	92.190270 
439.519063  	91.008579 
440.950721  	91.900209 
442.382379  	91.797530 
443.814038  	90.052461 
445.245696  	90.295733 
446.677354  	92.097307 
448.109012  	92.735233 
449.540670  	91.294542 
450.972329  	90.248151 
452.403987  	90.748393 
453.835645  	91.113711 
455.267303  	91.611213 
456.698961  	91.995990 
458.130619  	90.070622 
459.562278  	88.990832 
460.993936  	89.624138 
462.425594  	90.329016 
463.857252  	91.325030 
465.288910  	91.021310 
466.720569  	89.287673 
468.152227  	88.730300 
469.583885  	89.246724 
471.015543  	89.430447 
472.447201  	88.732139 
473.878860  	87.989502 
475.310518  	88.864948 
476.742176  	89.687764 
478.173834  	88.961200 
479.605492  	88.233572 
481.037150  	87.952679 
482.468809  	87.865859 
483.900467  	87.994968 
485.332125  	87.222069 
486.763783  	85.946409 
488.195441  	85.980280 
489.627100  	87.389198 
491.058758  	88.017711 
492.490416  	86.764889 
493.922074  	86.185709 
495.353732  	87.225966 
496.785391  	87.750431 
498.217049  	87.705253 
499.648707  	87.985255 
501.080365  	88.023783 
502.512023  	87.782802 
503.943681  	87.657804 
505.375340  	87.619083 
506.806998  	87.520944 
508.238656  	87.318682 
509.670314  	87.606990 
511.101972  	88.004084 
512.533631  	87.505568 
513.965289  	86.940001 
515.396947  	86.916320 
516.828605  	86.865127 
518.260263  	86.886833 
519.691921  	86.817702 
521.123580  	86.313111 
522.555238  	85.675011 
523.986896  	84.831672 
525.418554  	83.993023 
526.850212  	83.846116 
528.281871  	83.874140 
529.713529  	83.463844 
531.145187  	82.626285 
532.576845  	81.490862 
534.008503  	80.518928 
535.440162  	79.989491 
536.871820  	79.444276 
538.303478  	78.442764 
539.735136  	77.225374 
541.166794  	76.142920 
542.598452  	75.142351 
544.030111  	74.159323 
545.461769  	73.318871 
546.893427  	72.500671 
548.325085  	71.370892 
549.756743  	70.178051 
551.188402  	69.587867 
552.620060  	69.468939 
554.051718  	69.566152 
555.483376  	70.339137 
556.915034  	71.569055 
558.346692  	72.859908 
559.778351  	74.401185 
561.210009  	75.865526 
562.641667  	77.434232 
564.073325  	79.699111 
565.504983  	82.272266 
566.936642  	85.271427 
568.368300  	88.753018 
569.799958  	91.314143 
571.231616  	92.265376 
572.663274  	92.069557 
574.094933  	91.427061 
575.526591  	90.995025 
576.958249  	90.829216 
578.389907  	90.857653 
579.821565  	91.343458 
581.253223  	91.920193 
582.684882  	92.150288 
584.116540  	92.313814 
585.548198  	92.515422 
586.979856  	92.788617 
588.411514  	93.140904 
589.843173  	93.422000 
591.274831  	93.724929 
592.706489  	93.871112 
594.138147  	93.775336 
595.569805  	94.008566 
597.001464  	94.433863 
598.433122  	94.401343 
599.864780  	94.135461 
601.296438  	94.142757 
602.728096  	94.469119 
604.159754  	94.775896 
605.591413  	94.744010 
607.023071  	94.578527 
608.454729  	94.531840 
609.886387  	94.571004 
611.318045  	94.714078 
612.749704  	94.841705 
614.181362  	94.782868 
615.613020  	94.573606 
617.044678  	94.433953 
618.476336  	94.600951 
619.907994  	94.704249 
621.339653  	94.354918 
622.771311  	93.935177 
624.202969  	93.694020 
625.634627  	93.540754 
627.066285  	93.473696 
628.497944  	93.282422 
629.929602  	92.941839 
631.361260  	92.750943 
632.792918  	92.784032 
634.224576  	92.911784 
635.656235  	92.998876 
637.087893  	93.117136 
638.519551  	93.375610 
639.951209  	93.652253 
641.382867  	93.899437 
642.814525  	93.941620 
644.246184  	93.648601 
645.677842  	93.532421 
647.109500  	93.597242 
648.541158  	93.449707 
649.972816  	93.464871 
651.404475  	93.488157 
652.836133  	93.119839 
654.267791  	92.988908 
655.699449  	93.163976 
657.131107  	93.180620 
658.562766  	93.162419 
659.994424  	93.064150 
661.426082  	92.917701 
662.857740  	92.993500 
664.289398  	93.001519 
665.721056  	92.576964 
667.152715  	91.448105 
668.584373  	90.634469 
670.016031  	91.721212 
671.447689  	92.189811 
672.879347  	91.877458 
674.311006  	91.597006 
675.742664  	91.542506 
677.174322  	91.407016 
678.605980  	91.294132 
680.037638  	91.276447 
681.469296  	91.163102 
682.900955  	90.686741 
684.332613  	90.086918 
685.764271  	89.778971 
687.195929  	89.555130 
688.627587  	89.469499 
690.059246  	89.695040 
691.490904  	89.789911 
692.922562  	89.739992 
694.354220  	89.644756 
695.785878  	89.220220 
697.217537  	88.765475 
698.649195  	88.499599 
700.080853  	87.939291 
701.512511  	87.155927 
702.944169  	86.672695 
704.375827  	86.434310 
705.807486  	86.192820 
707.239144  	86.168990 
708.670802  	86.474104 
710.102460  	86.822863 
711.534118  	87.309059 
712.965777  	87.971311 
714.397435  	88.377853 
715.829093  	88.513517 
717.260751  	88.624392 
718.692409  	88.697608 
720.124067  	88.661738 
721.555726  	88.427567 
722.987384  	88.084525 
724.419042  	87.802121 
725.850700  	87.582998 
727.282358  	87.470842 
728.714017  	87.354267 
730.145675  	87.173031 
731.577333  	87.205040 
733.008991  	87.364604 
734.440649  	87.537852 
735.872308  	87.847227 
737.303966  	87.886113 
738.735624  	87.526536 
740.167282  	87.220514 
741.598940  	86.947832 
743.030598  	86.599116 
744.462257  	86.169772 
745.893915  	85.509849 
747.325573  	84.797196 
748.757231  	84.133666 
750.188889  	83.400814 
751.620548  	82.688456 
753.052206  	81.996083 
754.483864  	81.375922 
755.915522  	80.866931 
757.347180  	80.326274 
758.778839  	80.001102 
760.210497  	80.010310 
761.642155  	79.981377 
763.073813  	79.868452 
764.505471  	79.825464 
765.937129  	79.802439 
767.368788  	79.830747 
768.800446  	80.116371 
770.232104  	80.823106 
771.663762  	81.822904 
773.095420  	82.977930 
774.527079  	84.308672 
775.958737  	85.605945 
777.390395  	86.635448 
778.822053  	87.426301 
780.253711  	87.987821 
781.685369  	88.376852 
783.117028  	88.743311 
784.548686  	89.045173 
785.980344  	89.229768 
787.412002  	89.326052 
788.843660  	89.310264 
790.275319  	89.243975 
791.706977  	89.192471 
793.138635  	89.059730 
794.570293  	88.696846 
796.001951  	88.133501 
797.433610  	87.529862 
798.865268  	86.752611 
800.296926  	85.653547 
801.728584  	84.404205 
803.160242  	82.946874 
804.591900  	81.279547 
806.023559  	79.745918 
807.455217  	78.316840 
808.886875  	76.886207 
810.318533  	75.692202 
811.750191  	74.852549 
813.181850  	74.320682 
814.613508  	74.113615 
816.045166  	74.248014 
817.476824  	74.570558 
818.908482  	74.821946 
820.340141  	74.766284 
821.771799  	74.258856 
823.203457  	73.366691 
824.635115  	72.258862 
826.066773  	71.134393 
827.498431  	70.404393 
828.930090  	70.408035 
830.361748  	71.168476 
831.793406  	72.534425 
833.225064  	74.221681 
834.656722  	76.104415 
836.088381  	78.089748 
837.520039  	79.937290 
838.951697  	81.506697 
840.383355  	82.724550 
841.815013  	83.669972 
843.246671  	84.585436 
844.678330  	85.595975 
846.109988  	86.709123 
847.541646  	87.864043 
848.973304  	89.044808 
850.404962  	90.332407 
851.836621  	91.618130 
853.268279  	92.729286 
854.699937  	93.687371 
856.131595  	94.556521 
857.563253  	95.285400 
858.994912  	95.751486 
860.426570  	95.992122 
861.858228  	96.125562 
863.289886  	96.116617 
864.721544  	95.963311 
866.153202  	95.715998 
867.584861  	95.341689 
869.016519  	94.855951 
870.448177  	94.272176 
871.879835  	93.586966 
873.311493  	92.877075 
874.743152  	92.068130 
876.174810  	91.090448 
877.606468  	90.128747 
879.038126  	89.185637 
880.469784  	88.173733 
881.901443  	87.225450 
883.333101  	86.354039 
884.764759  	85.653294 
886.196417  	85.341982 
887.628075  	85.435046 
889.059733  	86.123571 
890.491392  	87.557809 
891.923050  	89.523751 
893.354708  	91.707765 
894.786366  	93.608836 
896.218024  	94.946431 
897.649683  	95.845716 
899.081341  	96.313118 
900.512999  	96.418628 
901.944657  	96.443720 
903.376315  	96.437732 
904.807973  	96.317062 
906.239632  	96.068253 
907.671290  	95.767569 
909.102948  	95.560428 
910.534606  	95.368315 
911.966264  	95.054674 
913.397923  	94.662148 
914.829581  	94.243819 
916.261239  	93.946820 
917.692897  	93.805093 
919.124555  	93.678500 
920.556214  	93.680506 
921.987872  	93.850615 
923.419530  	94.061455 
924.851188  	94.330642 
926.282846  	94.457891 
927.714504  	94.268184 
929.146163  	93.995897 
930.577821  	93.705105 
932.009479  	93.318139 
933.441137  	92.957306 
934.872795  	92.703077 
936.304454  	92.562034 
937.736112  	92.480046 
939.167770  	92.368231 
940.599428  	92.241809 
942.031086  	92.127247 
943.462744  	92.044935 
944.894403  	92.024223 
946.326061  	92.079313 
947.757719  	92.235673 
949.189377  	92.395923 
950.621035  	92.434671 
952.052694  	92.359700 
953.484352  	92.149904 
954.916010  	91.815519 
956.347668  	91.469444 
957.779326  	91.176941 
959.210985  	91.005133 
960.642643  	90.964220 
962.074301  	90.951014 
963.505959  	90.904509 
964.937617  	90.850660 
966.369275  	90.828847 
967.800934  	90.772285 
969.232592  	90.649669 
970.664250  	90.562348 
972.095908  	90.410903 
973.527566  	90.093353 
974.959225  	89.792248 
976.390883  	89.528990 
977.822541  	89.185011 
979.254199  	88.770971 
980.685857  	88.277252 
982.117516  	87.738466 
983.549174  	87.166948 
984.980832  	86.498345 
986.412490  	85.745325 
987.844148  	84.848624 
989.275806  	83.822661 
990.707465  	82.851837 
992.139123  	82.017756 
993.570781  	81.410473 
995.002439  	80.970781 
996.434097  	80.437131 
997.865756  	79.655995 
999.297414  	78.389278 
1000.729072  	76.525191 
1002.160730  	74.374384 
1003.592388  	72.360924 
1005.024046  	71.019052 
1006.455705  	70.473049 
1007.887363  	70.190736 
1009.319021  	69.575692 
1010.750679  	67.839795 
1012.182337  	65.012114 
1013.613996  	63.322609 
1015.045654  	65.255050 
1016.477312  	70.753883 
1017.908970  	77.446418 
1019.340628  	83.362641 
1020.772287  	87.850394 
1022.203945  	90.938079 
1023.635603  	93.186201 
1025.067261  	94.872681 
1026.498919  	95.802441 
1027.930577  	96.125925 
1029.362236  	96.161355 
1030.793894  	95.934211 
1032.225552  	95.569832 
1033.657210  	95.209199 
1035.088868  	94.780412 
1036.520527  	94.361215 
1037.952185  	93.977375 
1039.383843  	93.538880 
1040.815501  	93.165620 
1042.247159  	92.858400 
1043.678818  	92.485796 
1045.110476  	92.074996 
1046.542134  	91.668427 
1047.973792  	91.293312 
1049.405450  	90.919754 
1050.837108  	90.512696 
1052.268767  	90.132282 
1053.700425  	89.739605 
1055.132083  	89.327320 
1056.563741  	88.939522 
1057.995399  	88.488436 
1059.427058  	87.982483 
1060.858716  	87.464573 
1062.290374  	86.931826 
1063.722032  	86.384044 
1065.153690  	85.669411 
1066.585348  	84.829955 
1068.017007  	83.996758 
1069.448665  	82.939104 
1070.880323  	81.591597 
1072.311981  	80.051768 
1073.743639  	78.121095 
1075.175298  	75.512146 
1076.606956  	72.198843 
1078.038614  	69.138579 
1079.470272  	67.805722 
1080.901930  	68.781277 
1082.333589  	71.830525 
1083.765247  	75.943481 
1085.196905  	79.991265 
1086.628563  	83.240097 
1088.060221  	85.237439 
1089.491879  	86.039796 
1090.923538  	85.948779 
1092.355196  	85.211048 
1093.786854  	84.133436 
1095.218512  	82.845411 
1096.650170  	81.313623 
1098.081829  	79.740089 
1099.513487  	78.288539 
1100.945145  	77.277880 
1102.376803  	77.059907 
1103.808461  	77.284986 
1105.240120  	77.527735 
1106.671778  	77.610709 
1108.103436  	77.519852 
1109.535094  	77.559567 
1110.966752  	77.827026 
1112.398410  	78.224613 
1113.830069  	78.650453 
1115.261727  	78.864366 
1116.693385  	78.900003 
1118.125043  	78.817488 
1119.556701  	78.505136 
1120.988360  	78.100496 
1122.420018  	77.612090 
1123.851676  	76.939065 
1125.283334  	76.165661 
1126.714992  	75.261814 
1128.146650  	74.347525 
1129.578309  	73.463325 
1131.009967  	72.427313 
1132.441625  	71.430671 
1133.873283  	70.402864 
1135.304941  	69.164573 
1136.736600  	68.027718 
1138.168258  	66.903783 
1139.599916  	65.674333 
1141.031574  	64.473806 
1142.463232  	63.150739 
1143.894891  	61.880914 
1145.326549  	60.713545 
1146.758207  	59.453985 
1148.189865  	58.347048 
1149.621523  	57.268135 
1151.053181  	56.164015 
1152.484840  	55.284906 
1153.916498  	54.405524 
1155.348156  	53.722271 
1156.779814  	53.415053 
1158.211472  	53.274281 
1159.643131  	53.654500 
1161.074789  	54.635648 
1162.506447  	56.163940 
1163.938105  	58.367008 
1165.369763  	60.950969 
1166.801421  	63.915883 
1168.233080  	67.000953 
1169.664738  	69.403597 
1171.096396  	70.677006 
1172.528054  	70.427287 
1173.959712  	68.642403 
1175.391371  	66.145269 
1176.823029  	63.661685 
1178.254687  	61.610158 
1179.686345  	59.989826 
1181.118003  	58.341230 
1182.549662  	56.836810 
1183.981320  	55.664712 
1185.412978  	54.867667 
1186.844636  	54.835935 
1188.276294  	55.319008 
1189.707952  	56.160451 
1191.139611  	57.468238 
1192.571269  	58.845369 
1194.002927  	60.361676 
1195.434585  	62.126470 
1196.866243  	63.968355 
1198.297902  	66.019159 
1199.729560  	68.100158 
1201.161218  	70.105914 
1202.592876  	72.085702 
1204.024534  	73.651429 
1205.456193  	74.522980 
1206.887851  	74.351629 
1208.319509  	72.803390 
1209.751167  	70.360652 
1211.182825  	67.622191 
1212.614483  	65.020651 
1214.046142  	63.114267 
1215.477800  	61.833248 
1216.909458  	61.129822 
1218.341116  	60.997679 
1219.772774  	61.054813 
1221.204433  	61.417033 
1222.636091  	62.024188 
1224.067749  	62.635044 
1225.499407  	63.416456 
1226.931065  	64.214527 
1228.362723  	65.031552 
1229.794382  	65.964242 
1231.226040  	66.755878 
1232.657698  	67.561974 
1234.089356  	68.434495 
1235.521014  	69.228432 
1236.952673  	70.099856 
1238.384331  	70.918145 
1239.815989  	71.690637 
1241.247647  	72.558460 
1242.679305  	73.344698 
1244.110964  	74.212176 
1245.542622  	75.208301 
1246.974280  	76.192065 
1248.405938  	77.391272 
1249.837596  	78.724564 
1251.269254  	80.149560 
1252.700913  	81.842140 
1254.132571  	83.597246 
1255.564229  	85.450351 
1256.995887  	87.499686 
1258.427545  	89.532203 
1259.859204  	91.566021 
1261.290862  	93.600766 
1262.722520  	95.489191 
1264.154178  	97.178355 
1265.585836  	98.617635 
1267.017495  	99.808178 
1268.449153  	100.782826 
1269.880811  	101.547368 
1271.312469  	102.130753 
1272.744127  	102.522470 
1274.175785  	102.718112 
1275.607444  	102.823462 
1277.039102  	102.851642 
1278.470760  	102.695470 
1279.902418  	102.419015 
1281.334076  	102.127949 
1282.765735  	101.780189 
1284.197393  	101.359098 
1285.629051  	100.932165 
1287.060709  	100.567008 
1288.492367  	100.245145 
1289.924025  	99.973469 
1291.355684  	99.863185 
1292.787342  	99.949083 
1294.219000  	100.238392 
1295.650658  	100.729477 
1297.082316  	101.320615 
1298.513975  	101.960004 
1299.945633  	102.636306 
1301.377291  	103.191435 
1302.808949  	103.561527 
1304.240607  	103.829764 
1305.672266  	103.891671 
1307.103924  	103.729569 
1308.535582  	103.535352 
1309.967240  	103.484449 
1311.398898  	103.724854 
1312.830556  	104.270748 
1314.262215  	104.953965 
1315.693873  	105.574963 
1317.125531  	105.995422 
1318.557189  	106.291011 
1319.988847  	106.579109 
1321.420506  	106.707109 
1322.852164  	106.728597 
1324.283822  	106.765214 
1325.715480  	106.762061 
1327.147138  	106.797406 
1328.578796  	106.836707 
1330.010455  	106.811755 
1331.442113  	106.836071 
1332.873771  	106.849609 
1334.305429  	106.824921 
1335.737087  	106.809866 
1337.168746  	106.731467 
1338.600404  	106.680528 
1340.032062  	106.699045 
1341.463720  	106.680657 
1342.895378  	106.663454 
1344.327037  	106.641952 
1345.758695  	106.633482 
1347.190353  	106.597511 
1348.622011  	106.460863 
1350.053669  	106.402202 
1351.485327  	106.395150 
1352.916986  	106.308056 
1354.348644  	106.212421 
1355.780302  	105.972352 
1357.211960  	105.606333 
1358.643618  	105.090276 
1360.075277  	104.005051 
1361.506935  	102.374575 
1362.938593  	100.663752 
1364.370251  	99.944294 
1365.801909  	100.553188 
1367.233568  	101.945549 
1368.665226  	103.507506 
1370.096884  	104.676344 
1371.528542  	105.289860 
1372.960200  	105.492251 
1374.391858  	105.677552 
1375.823517  	105.805320 
1377.255175  	105.723464 
1378.686833  	105.575443 
1380.118491  	105.314964 
1381.550149  	104.861742 
1382.981808  	104.102587 
1384.413466  	103.208514 
1385.845124  	102.537639 
1387.276782  	102.476307 
1388.708440  	103.070373 
1390.140098  	103.733539 
1391.571757  	104.355742 
1393.003415  	104.711989 
1394.435073  	104.837697 
1395.866731  	104.935961 
1397.298389  	104.776371 
1398.730048  	104.443792 
1400.161706  	104.153410 
1401.593364  	103.645464 
1403.025022  	102.899648 
1404.456680  	102.128181 
1405.888339  	101.247031 
1407.319997  	100.410698 
1408.751655  	99.968166 
1410.183313  	99.914134 
1411.614971  	100.427630 
1413.046629  	101.372304 
1414.478288  	102.367313 
1415.909946  	103.428762 
1417.341604  	104.223016 
1418.773262  	104.721509 
1420.204920  	105.381917 
1421.636579  	105.620873 
1423.068237  	105.642539 
1424.499895  	105.859407 
1425.931553  	105.938129 
1427.363211  	105.880240 
1428.794870  	105.858876 
1430.226528  	105.776754 
1431.658186  	105.782030 
1433.089844  	105.748271 
1434.521502  	105.560443 
1435.953160  	105.430487 
1437.384819  	105.336885 
1438.816477  	105.193832 
1440.248135  	104.943187 
1441.679793  	104.551407 
1443.111451  	104.295005 
1444.543110  	104.069344 
1445.974768  	103.750400 
1447.406426  	103.501447 
1448.838084  	103.207845 
1450.269742  	102.969265 
1451.701400  	102.916319 
1453.133059  	102.891625 
1454.564717  	102.755811 
1455.996375  	102.455037 
1457.428033  	102.030784 
1458.859691  	101.646681 
1460.291350  	101.029895 
1461.723008  	100.491055 
1463.154666  	100.102649 
1464.586324  	99.881039 
1466.017982  	100.144002 
1467.449641  	100.343165 
1468.881299  	100.509398 
1470.312957  	100.676813 
1471.744615  	100.595492 
1473.176273  	100.867430 
1474.607931  	101.131121 
1476.039590  	100.939175 
1477.471248  	100.982854 
1478.902906  	100.880840 
1480.334564  	100.439076 
1481.766222  	100.100473 
1483.197881  	99.536666 
1484.629539  	98.694552 
1486.061197  	97.815396 
1487.492855  	96.513535 
1488.924513  	95.093921 
1490.356172  	93.569258 
1491.787830  	91.407307 
1493.219488  	89.578541 
1494.651146  	87.693714 
1496.082804  	85.180082 
1497.514462  	82.978105 
1498.946121  	80.903558 
1500.377779  	79.065931 
1501.809437  	78.378596 
1503.241095  	78.085611 
1504.672753  	78.193555 
1506.104412  	79.619805 
1507.536070  	82.893245 
1508.967728  	86.356951 
1510.399386  	89.647863 
1511.831044  	93.029134 
1513.262702  	96.384526 
1514.694361  	98.803574 
1516.126019  	100.478334 
1517.557677  	102.442595 
1518.989335  	103.567704 
1520.420993  	103.828462 
1521.852652  	104.724454 
1523.284310  	105.423428 
1524.715968  	105.484251 
1526.147626  	105.881331 
1527.579284  	106.190549 
1529.010943  	106.325064 
1530.442601  	106.524071 
1531.874259  	106.403848 
1533.305917  	106.353385 
1534.737575  	106.782195 
1536.169233  	106.811756 
1537.600892  	106.702338 
1539.032550  	106.591420 
1540.464208  	106.619689 
1541.895866  	106.959397 
1543.327524  	106.950946 
1544.759183  	106.987509 
1546.190841  	107.235357 
1547.622499  	107.132132 
1549.054157  	106.981862 
1550.485815  	107.094150 
1551.917473  	107.084630 
1553.349132  	106.989579 
1554.780790  	107.022746 
1556.212448  	106.949111 
1557.644106  	106.664924 
1559.075764  	106.631597 
1560.507423  	107.350185 
1561.939081  	107.264233 
1563.370739  	107.093722 
1564.802397  	107.134889 
1566.234055  	107.192464 
1567.665714  	107.063404 
1569.097372  	107.004285 
1570.529030  	107.138779 
1571.960688  	107.171030 
1573.392346  	107.061189 
1574.824004  	106.879170 
1576.255663  	106.868317 
1577.687321  	106.998441 
1579.118979  	106.905962 
1580.550637  	106.790760 
1581.982295  	106.660710 
1583.413954  	106.387389 
1584.845612  	106.053887 
1586.277270  	105.720709 
1587.708928  	105.291892 
1589.140586  	104.786634 
1590.572245  	104.372300 
1592.003903  	104.074316 
1593.435561  	103.952633 
1594.867219  	104.006973 
1596.298877  	104.092064 
1597.730535  	104.156263 
1599.162194  	104.081902 
1600.593852  	103.923779 
1602.025510  	103.867554 
1603.457168  	103.913398 
1604.888826  	104.110967 
1606.320485  	104.407573 
1607.752143  	104.791943 
1609.183801  	105.322993 
1610.615459  	105.769287 
1612.047117  	106.115708 
1613.478775  	106.307719 
1614.910434  	106.291973 
1616.342092  	106.384920 
1617.773750  	106.707744 
1619.205408  	106.784198 
1620.637066  	106.727062 
1622.068725  	106.640279 
1623.500383  	106.711099 
1624.932041  	106.885503 
1626.363699  	106.849456 
1627.795357  	106.804545 
1629.227016  	106.820948 
1630.658674  	106.720612 
1632.090332  	106.605527 
1633.521990  	106.435843 
1634.953648  	106.131821 
1636.385306  	106.143946 
1637.816965  	106.294352 
1639.248623  	106.252807 
1640.680281  	106.334408 
1642.111939  	106.373856 
1643.543597  	106.220916 
1644.975256  	106.068777 
1646.406914  	106.036037 
1647.838572  	106.282278 
1649.270230  	106.379858 
1650.701888  	106.147922 
1652.133547  	105.789065 
1653.565205  	106.024056 
1654.996863  	106.460979 
1656.428521  	106.374791 
1657.860179  	106.322443 
1659.291837  	106.384161 
1660.723496  	106.367054 
1662.155154  	106.288184 
1663.586812  	106.392315 
1665.018470  	106.432158 
1666.450128  	106.327359 
1667.881787  	106.233956 
1669.313445  	106.203755 
1670.745103  	106.414552 
1672.176761  	106.545770 
1673.608419  	106.353094 
1675.040077  	106.286867 
1676.471736  	106.535555 
1677.903394  	106.460798 
1679.335052  	106.359733 
1680.766710  	106.369687 
1682.198368  	106.149721 
1683.630027  	105.850909 
1685.061685  	106.298706 
1686.493343  	106.413780 
1687.925001  	106.202110 
1689.356659  	106.124235 
1690.788318  	106.146451 
1692.219976  	106.049692 
1693.651634  	105.836464 
1695.083292  	105.589648 
1696.514950  	105.705070 
1697.946608  	105.713273 
1699.378267  	105.329301 
1700.809925  	105.391171 
1702.241583  	105.526910 
1703.673241  	105.072934 
1705.104899  	104.797310 
1706.536558  	104.866509 
1707.968216  	104.694000 
1709.399874  	104.569469 
1710.831532  	104.447315 
1712.263190  	104.183163 
1713.694849  	103.972800 
1715.126507  	103.677646 
1716.558165  	103.383506 
1717.989823  	103.366477 
1719.421481  	103.318972 
1720.853139  	103.169246 
1722.284798  	102.906879 
1723.716456  	102.609808 
1725.148114  	102.451522 
1726.579772  	102.145678 
1728.011430  	101.780898 
1729.443089  	101.520511 
1730.874747  	101.191123 
1732.306405  	100.908628 
1733.738063  	100.647517 
1735.169721  	100.595485 
1736.601379  	100.443157 
1738.033038  	99.883606 
1739.464696  	99.458269 
1740.896354  	99.344222 
1742.328012  	98.774614 
1743.759670  	98.280684 
1745.191329  	97.750519 
1746.622987  	96.813281 
1748.054645  	96.062761 
1749.486303  	95.106822 
1750.917961  	93.785333 
1752.349620  	92.607925 
1753.781278  	90.955776 
1755.212936  	89.176675 
1756.644594  	87.268384 
1758.076252  	84.653871 
1759.507910  	82.313731 
1760.939569  	80.071082 
1762.371227  	77.317684 
1763.802885  	75.416675 
1765.234543  	74.167966 
1766.666201  	73.026549 
1768.097860  	72.841394 
1769.529518  	73.094332 
1770.961176  	73.278333 
1772.392834  	74.481442 
1773.824492  	75.781192 
1775.256150  	76.825830 
1776.687809  	78.473803 
1778.119467  	79.926494 
1779.551125  	81.364709 
1780.982783  	83.317033 
1782.414441  	84.877431 
1783.846100  	86.488959 
1785.277758  	88.480665 
1786.709416  	90.187787 
1788.141074  	92.018244 
1789.572732  	93.718611 
1791.004391  	95.135918 
1792.436049  	97.276940 
1793.867707  	99.059931 
1795.299365  	100.252029 
1796.731023  	101.648947 
1798.162681  	102.556296 
1799.594340  	103.392082 
1801.025998  	104.402825 
1802.457656  	104.957890 
1803.889314  	105.581611 
1805.320972  	106.027021 
1806.752631  	106.275975 
1808.184289  	106.724149 
1809.615947  	106.809591 
1811.047605  	106.906695 
1812.479263  	107.275054 
1813.910922  	107.364908 
1815.342580  	107.573897 
1816.774238  	107.718380 
1818.205896  	107.644009 
1819.637554  	107.829901 
1821.069212  	107.864533 
1822.500871  	107.831922 
1823.932529  	107.897510 
1825.364187  	107.822477 
1826.795845  	108.046416 
1828.227503  	108.120992 
1829.659162  	107.904262 
1831.090820  	108.086895 
1832.522478  	108.096013 
1833.954136  	108.050303 
1835.385794  	108.218931 
1836.817452  	108.121901 
1838.249111  	108.169495 
1839.680769  	108.318463 
1841.112427  	108.147143 
1842.544085  	108.100779 
1843.975743  	108.119924 
1845.407402  	108.219915 
1846.839060  	108.358974 
1848.270718  	108.212015 
1849.702376  	108.293567 
1851.134034  	108.352115 
1852.565693  	108.091539 
1853.997351  	108.212600 
1855.429009  	108.290720 
1856.860667  	108.126460 
1858.292325  	108.227349 
1859.723983  	108.158932 
1861.155642  	108.128120 
1862.587300  	108.288163 
1864.018958  	108.201089 
1865.450616  	108.217795 
1866.882274  	108.093100 
1868.313933  	107.865092 
1869.745591  	108.268434 
1871.177249  	108.249775 
1872.608907  	107.986009 
1874.040565  	108.156844 
1875.472224  	108.108546 
1876.903882  	107.987396 
1878.335540  	108.096249 
1879.767198  	108.144895 
1881.198856  	108.245703 
1882.630514  	108.093274 
1884.062173  	107.867627 
1885.493831  	107.969126 
1886.925489  	107.856602 
1888.357147  	107.717980 
1889.788805  	107.763874 
1891.220464  	107.639951 
1892.652122  	107.650864 
1894.083780  	107.622301 
1895.515438  	107.457367 
1896.947096  	107.533231 
1898.378754  	107.563125 
1899.810413  	107.551701 
1901.242071  	107.504898 
1902.673729  	107.334002 
1904.105387  	107.453809 
1905.537045  	107.584555 
1906.968704  	107.629440 
1908.400362  	107.857901 
1909.832020  	107.815378 
1911.263678  	107.808607 
1912.695336  	108.010314 
1914.126995  	107.995864 
1915.558653  	108.219992 
1916.990311  	108.384370 
1918.421969  	108.160022 
1919.853627  	108.324163 
1921.285285  	108.304442 
1922.716944  	108.037734 
1924.148602  	108.205267 
1925.580260  	108.258884 
1927.011918  	108.252486 
1928.443576  	108.322849 
1929.875235  	108.285767 
1931.306893  	108.530397 
1932.738551  	108.583465 
1934.170209  	108.430392 
1935.601867  	108.597838 
1937.033525  	108.392188 
1938.465184  	108.083621 
1939.896842  	108.095207 
1941.328500  	107.985763 
1942.760158  	108.233780 
1944.191816  	108.515585 
1945.623475  	108.259036 
1947.055133  	108.106888 
1948.486791  	108.048381 
1949.918449  	108.025132 
1951.350107  	107.874875 
1952.781766  	107.687886 
1954.213424  	108.046113 
1955.645082  	108.051310 
1957.076740  	107.850451 
1958.508398  	108.322497 
1959.940056  	107.960810 
1961.371715  	107.402055 
1962.803373  	107.839073 
1964.235031  	107.618807 
1965.666689  	107.261251 
1967.098347  	107.546293 
1968.530006  	107.626061 
1969.961664  	107.715687 
1971.393322  	107.508929 
1972.824980  	107.480133 
1974.256638  	107.860750 
1975.688297  	107.165142 
1977.119955  	106.856414 
1978.551613  	107.773646 
1979.983271  	107.997527 
1981.414929  	107.818347 
1982.846587  	107.654387 
1984.278246  	107.633066 
1985.709904  	107.875194 
1987.141562  	107.782060 
1988.573220  	107.895742 
1990.004878  	107.949259 
1991.436537  	107.487236 
1992.868195  	107.826897 
1994.299853  	108.034823 
1995.731511  	107.496977 
1997.163169  	107.554904 
1998.594827  	107.599468 
2000.026486  	107.545498 
2001.458144  	107.794543 
2002.889802  	107.471318 
2004.321460  	107.287119 
2005.753118  	107.421056 
2007.184777  	107.260016 
2008.616435  	107.513592 
2010.048093  	107.592472 
2011.479751  	107.311762 
2012.911409  	107.292357 
2014.343068  	107.135654 
2015.774726  	107.234703 
2017.206384  	107.287984 
2018.638042  	107.062040 
2020.069700  	107.487317 
2021.501358  	107.569465 
2022.933017  	107.369598 
2024.364675  	107.657849 
2025.796333  	107.201511 
2027.227991  	106.880513 
2028.659649  	107.357399 
2030.091308  	107.464095 
2031.522966  	107.495744 
2032.954624  	107.252229 
2034.386282  	107.010036 
2035.817940  	107.281022 
2037.249599  	106.926296 
2038.681257  	106.902604 
2040.112915  	107.608375 
2041.544573  	107.517640 
2042.976231  	107.318370 
2044.407889  	107.441476 
2045.839548  	107.554621 
2047.271206  	107.990918 
2048.702864  	108.075647 
2050.134522  	107.864932 
2051.566180  	107.855075 
2052.997839  	107.722142 
2054.429497  	107.811880 
2055.861155  	107.935553 
2057.292813  	108.004582 
2058.724471  	108.423860 
2060.156129  	108.322871 
2061.587788  	107.856589 
2063.019446  	107.958600 
2064.451104  	108.162503 
2065.882762  	108.402046 
2067.314420  	108.575245 
2068.746079  	108.430561 
2070.177737  	108.436825 
2071.609395  	108.259596 
2073.041053  	108.059372 
2074.472711  	108.259295 
2075.904370  	108.134424 
2077.336028  	108.044148 
2078.767686  	108.376410 
2080.199344  	108.482466 
2081.631002  	108.543924 
2083.062660  	108.536192 
2084.494319  	108.376362 
2085.925977  	108.439755 
2087.357635  	108.375761 
2088.789293  	108.270066 
2090.220951  	108.320124 
2091.652610  	108.231096 
2093.084268  	108.334825 
2094.515926  	108.468437 
2095.947584  	108.495295 
2097.379242  	108.779913 
2098.810901  	108.655143 
2100.242559  	108.398631 
2101.674217  	108.636834 
2103.105875  	108.572659 
2104.537533  	108.572417 
2105.969191  	108.942547 
2107.400850  	108.810856 
2108.832508  	108.639375 
2110.264166  	108.708298 
2111.695824  	108.571325 
2113.127482  	108.494882 
2114.559141  	108.523003 
2115.990799  	108.651588 
2117.422457  	108.791181 
2118.854115  	108.698039 
2120.285773  	108.750850 
2121.717431  	108.750593 
2123.149090  	108.469627 
2124.580748  	108.447206 
2126.012406  	108.410918 
2127.444064  	108.281351 
2128.875722  	108.458753 
2130.307381  	108.541300 
2131.739039  	108.473195 
2133.170697  	108.319587 
2134.602355  	108.032058 
2136.034013  	108.075063 
2137.465672  	108.049875 
2138.897330  	107.900511 
2140.328988  	108.170377 
2141.760646  	108.182815 
2143.192304  	107.842244 
2144.623962  	107.611847 
2146.055621  	107.577631 
2147.487279  	108.096133 
2148.918937  	108.371786 
2150.350595  	107.888611 
2151.782253  	107.633199 
2153.213912  	107.573929 
2154.645570  	107.661325 
2156.077228  	107.891607 
2157.508886  	107.701904 
2158.940544  	107.598280 
2160.372202  	107.323761 
2161.803861  	107.031165 
2163.235519  	107.687254 
2164.667177  	108.176625 
2166.098835  	107.965503 
2167.530493  	107.937513 
2168.962152  	108.201109 
2170.393810  	108.419021 
2171.825468  	108.054176 
2173.257126  	107.797442 
2174.688784  	108.113045 
2176.120443  	107.772348 
2177.552101  	107.548833 
2178.983759  	108.117608 
2180.415417  	108.163539 
2181.847075  	108.169174 
2183.278733  	108.295936 
2184.710392  	107.890311 
2186.142050  	107.908086 
2187.573708  	107.946175 
2189.005366  	107.681276 
2190.437024  	108.049171 
2191.868683  	108.258721 
2193.300341  	107.918334 
2194.731999  	107.818940 
2196.163657  	107.857788 
2197.595315  	107.987209 
2199.026974  	108.027500 
2200.458632  	107.820850 
2201.890290  	107.904916 
2203.321948  	108.263479 
2204.753606  	108.549211 
2206.185264  	108.475104 
2207.616923  	108.067743 
2209.048581  	108.072706 
2210.480239  	108.275638 
2211.911897  	108.155320 
2213.343555  	108.170844 
2214.775214  	108.334509 
2216.206872  	108.407856 
2217.638530  	108.455013 
2219.070188  	108.407461 
2220.501846  	108.299095 
2221.933504  	108.055076 
2223.365163  	107.939517 
2224.796821  	108.243297 
2226.228479  	108.373594 
2227.660137  	108.248549 
2229.091795  	108.335508 
2230.523454  	108.419970 
2231.955112  	108.333475 
2233.386770  	108.206823 
2234.818428  	108.249551 
2236.250086  	108.379424 
2237.681745  	108.183525 
2239.113403  	107.971682 
2240.545061  	108.038998 
2241.976719  	108.056091 
2243.408377  	108.028822 
2244.840035  	108.024361 
2246.271694  	108.219910 
2247.703352  	108.595909 
2249.135010  	108.523448 
2250.566668  	108.336436 
2251.998326  	108.477206 
2253.429985  	108.458179 
2254.861643  	108.519047 
2256.293301  	108.667573 
2257.724959  	108.424101 
2259.156617  	108.379075 
2260.588276  	108.662681 
2262.019934  	108.751324 
2263.451592  	108.708602 
2264.883250  	108.649153 
2266.314908  	108.752305 
2267.746566  	108.920301 
2269.178225  	108.821585 
2270.609883  	108.678344 
2272.041541  	108.505218 
2273.473199  	108.451321 
2274.904857  	108.863246 
2276.336516  	109.113938 
2277.768174  	108.987716 
2279.199832  	109.049574 
2280.631490  	109.133439 
2282.063148  	109.046840 
2283.494806  	108.996749 
2284.926465  	109.072849 
2286.358123  	109.165455 
2287.789781  	109.055361 
2289.221439  	109.010627 
2290.653097  	109.147925 
2292.084756  	109.008883 
2293.516414  	108.802598 
2294.948072  	108.810556 
2296.379730  	108.705107 
2297.811388  	108.592260 
2299.243047  	108.636525 
2300.674705  	108.602320 
2302.106363  	108.468665 
2303.538021  	108.359167 
2304.969679  	108.310352 
2306.401337  	108.191577 
2307.832996  	107.966649 
2309.264654  	107.831793 
2310.696312  	107.684145 
2312.127970  	107.509021 
2313.559628  	107.522364 
2314.991287  	107.491188 
2316.422945  	107.302979 
2317.854603  	107.086344 
2319.286261  	106.746359 
2320.717919  	106.473974 
2322.149577  	106.445303 
2323.581236  	106.447867 
2325.012894  	106.379036 
2326.444552  	106.213162 
2327.876210  	105.965822 
2329.307868  	105.723929 
2330.739527  	105.568069 
2332.171185  	105.601487 
2333.602843  	105.722321 
2335.034501  	105.792286 
2336.466159  	105.753173 
2337.897818  	105.552024 
2339.329476  	105.474279 
2340.761134  	105.513694 
2342.192792  	105.360296 
2343.624450  	105.320429 
2345.056108  	105.510369 
2346.487767  	105.951767 
2347.919425  	106.718116 
2349.351083  	106.972664 
2350.782741  	106.338259 
2352.214399  	105.600875 
2353.646058  	105.271189 
2355.077716  	104.863799 
2356.509374  	104.418765 
2357.941032  	104.176743 
2359.372690  	104.056801 
2360.804349  	104.030988 
2362.236007  	104.112416 
2363.667665  	104.362327 
2365.099323  	104.590158 
2366.530981  	104.780804 
2367.962639  	105.099695 
2369.394298  	105.353356 
2370.825956  	105.707372 
2372.257614  	106.244093 
2373.689272  	106.577697 
2375.120930  	106.833050 
2376.552589  	107.146182 
2377.984247  	107.452900 
2379.415905  	107.877180 
2380.847563  	108.271526 
2382.279221  	108.555303 
2383.710879  	108.829264 
2385.142538  	108.986881 
2386.574196  	109.117316 
2388.005854  	109.249552 
2389.437512  	109.202917 
2390.869170  	109.165797 
2392.300829  	109.226667 
2393.732487  	109.222956 
2395.164145  	109.238309 
2396.595803  	109.258068 
2398.027461  	109.180595 
2399.459120  	109.135616 
2400.890778  	109.182344 
2402.322436  	109.198111 
2403.754094  	109.125315 
2405.185752  	109.094733 
2406.617410  	109.148687 
2408.049069  	109.142472 
2409.480727  	109.114101 
2410.912385  	109.129723 
2412.344043  	109.123028 
2413.775701  	109.114211 
2415.207360  	109.090491 
2416.639018  	109.106348 
2418.070676  	109.241690 
2419.502334  	109.305575 
2420.933992  	109.255003 
2422.365651  	109.230758 
2423.797309  	109.214114 
2425.228967  	109.263640 
2426.660625  	109.377131 
2428.092283  	109.386647 
2429.523941  	109.269973 
2430.955600  	109.111189 
2432.387258  	109.078722 
2433.818916  	109.217784 
2435.250574  	109.296165 
2436.682232  	109.255234 
2438.113891  	109.234960 
2439.545549  	109.263657 
2440.977207  	109.293326 
2442.408865  	109.293560 
2443.840523  	109.322654 
2445.272181  	109.346509 
2446.703840  	109.285418 
2448.135498  	109.278013 
2449.567156  	109.339347 
2450.998814  	109.354900 
2452.430472  	109.381682 
2453.862131  	109.421105 
2455.293789  	109.463722 
2456.725447  	109.505135 
2458.157105  	109.444606 
2459.588763  	109.372725 
2461.020422  	109.355840 
2462.452080  	109.312801 
2463.883738  	109.330536 
2465.315396  	109.388005 
2466.747054  	109.355125 
2468.178712  	109.322660 
2469.610371  	109.355081 
2471.042029  	109.375214 
2472.473687  	109.349168 
2473.905345  	109.343689 
2475.337003  	109.374023 
2476.768662  	109.326781 
2478.200320  	109.253572 
2479.631978  	109.265491 
2481.063636  	109.287791 
2482.495294  	109.298443 
2483.926953  	109.293489 
2485.358611  	109.309581 
2486.790269  	109.442025 
2488.221927  	109.529821 
2489.653585  	109.526145 
2491.085243  	109.588063 
2492.516902  	109.608779 
2493.948560  	109.567039 
2495.380218  	109.526599 
2496.811876  	109.441150 
2498.243534  	109.482872 
2499.675193  	109.620966 
2501.106851  	109.611245 
2502.538509  	109.583256 
2503.970167  	109.608491 
2505.401825  	109.559608 
2506.833483  	109.517788 
2508.265142  	109.567979 
2509.696800  	109.614981 
2511.128458  	109.581387 
2512.560116  	109.594785 
2513.991774  	109.692345 
2515.423433  	109.677514 
2516.855091  	109.622108 
2518.286749  	109.646545 
2519.718407  	109.644645 
2521.150065  	109.692230 
2522.581724  	109.769859 
2524.013382  	109.750535 
2525.445040  	109.745904 
2526.876698  	109.749071 
2528.308356  	109.737021 
2529.740014  	109.737096 
2531.171673  	109.677135 
2532.603331  	109.692369 
2534.034989  	109.741489 
2535.466647  	109.685708 
2536.898305  	109.758438 
2538.329964  	109.859332 
2539.761622  	109.802634 
2541.193280  	109.807349 
2542.624938  	109.796340 
2544.056596  	109.728878 
2545.488254  	109.774352 
2546.919913  	109.841094 
2548.351571  	109.929834 
2549.783229  	109.960018 
2551.214887  	109.833417 
2552.646545  	109.830073 
2554.078204  	109.905834 
2555.509862  	109.886079 
2556.941520  	109.898415 
2558.373178  	109.868268 
2559.804836  	109.825397 
2561.236495  	109.885854 
2562.668153  	109.913725 
2564.099811  	109.934684 
2565.531469  	109.918728 
2566.963127  	109.813933 
2568.394785  	109.832805 
2569.826444  	109.902134 
2571.258102  	109.875924 
2572.689760  	109.857053 
2574.121418  	109.847609 
2575.553076  	109.865882 
2576.984735  	109.882450 
2578.416393  	109.869788 
2579.848051  	109.959212 
2581.279709  	109.993102 
2582.711367  	109.896948 
2584.143026  	109.951542 
2585.574684  	110.051383 
2587.006342  	109.985690 
2588.438000  	109.901373 
2589.869658  	109.895524 
2591.301316  	109.942535 
2592.732975  	109.972021 
2594.164633  	109.957306 
2595.596291  	109.984969 
2597.027949  	110.033589 
2598.459607  	110.069786 
2599.891266  	110.130418 
2601.322924  	110.153331 
2602.754582  	110.100865 
2604.186240  	110.011310 
2605.617898  	109.946578 
2607.049556  	109.979063 
2608.481215  	110.061507 
2609.912873  	110.111199 
2611.344531  	110.149792 
2612.776189  	110.179134 
2614.207847  	110.159988 
2615.639506  	110.153326 
2617.071164  	110.206249 
2618.502822  	110.164223 
2619.934480  	110.019822 
2621.366138  	110.018367 
2622.797797  	110.108802 
2624.229455  	110.119453 
2625.661113  	110.137885 
2627.092771  	110.180105 
2628.524429  	110.209192 
2629.956087  	110.236172 
2631.387746  	110.205565 
2632.819404  	110.194725 
2634.251062  	110.247841 
2635.682720  	110.260266 
2637.114378  	110.251058 
2638.546037  	110.223380 
2639.977695  	110.191896 
2641.409353  	110.234580 
2642.841011  	110.229778 
2644.272669  	110.149094 
2645.704328  	110.140013 
2647.135986  	110.171767 
2648.567644  	110.201541 
2649.999302  	110.235222 
2651.430960  	110.226337 
2652.862618  	110.208564 
2654.294277  	110.220528 
2655.725935  	110.240839 
2657.157593  	110.233238 
2658.589251  	110.191403 
2660.020909  	110.175314 
2661.452568  	110.162140 
2662.884226  	110.132308 
2664.315884  	110.153750 
2665.747542  	110.168298 
2667.179200  	110.142944 
2668.610858  	110.132734 
2670.042517  	110.119278 
2671.474175  	110.142660 
2672.905833  	110.164755 
2674.337491  	110.111553 
2675.769149  	110.126860 
2677.200808  	110.184659 
2678.632466  	110.155781 
2680.064124  	110.143157 
2681.495782  	110.137556 
2682.927440  	110.111168 
2684.359099  	110.153052 
2685.790757  	110.182988 
2687.222415  	110.169272 
2688.654073  	110.164612 
2690.085731  	110.123502 
2691.517389  	110.093201 
2692.949048  	110.119422 
2694.380706  	110.142790 
2695.812364  	110.131926 
2697.244022  	110.099343 
2698.675680  	110.117490 
2700.107339  	110.162527 
2701.538997  	110.142575 
2702.970655  	110.129371 
2704.402313  	110.148241 
2705.833971  	110.144579 
2707.265630  	110.142302 
2708.697288  	110.124064 
2710.128946  	110.094441 
2711.560604  	110.071982 
2712.992262  	110.049025 
2714.423920  	110.093402 
2715.855579  	110.144789 
2717.287237  	110.124348 
2718.718895  	110.138193 
2720.150553  	110.159444 
2721.582211  	110.135666 
2723.013870  	110.149251 
2724.445528  	110.161294 
2725.877186  	110.137656 
2727.308844  	110.115725 
2728.740502  	110.091305 
2730.172160  	110.102439 
2731.603819  	110.141189 
2733.035477  	110.152740 
2734.467135  	110.128868 
2735.898793  	110.089223 
2737.330451  	110.120145 
2738.762110  	110.199368 
2740.193768  	110.200865 
2741.625426  	110.160211 
2743.057084  	110.150695 
2744.488742  	110.189022 
2745.920401  	110.237487 
2747.352059  	110.217697 
2748.783717  	110.209551 
2750.215375  	110.229913 
2751.647033  	110.178377 
2753.078691  	110.166964 
2754.510350  	110.208556 
2755.942008  	110.185179 
2757.373666  	110.183229 
2758.805324  	110.193708 
2760.236982  	110.146500 
2761.668641  	110.121409 
2763.100299  	110.113024 
2764.531957  	110.116152 
2765.963615  	110.151826 
2767.395273  	110.146952 
2768.826931  	110.106510 
2770.258590  	110.068018 
2771.690248  	110.032804 
2773.121906  	110.018773 
2774.553564  	110.012443 
2775.985222  	110.028184 
2777.416881  	110.044642 
2778.848539  	110.013916 
2780.280197  	110.010074 
2781.711855  	110.040178 
2783.143513  	110.046211 
2784.575172  	110.067981 
2786.006830  	110.100596 
2787.438488  	110.117255 
2788.870146  	110.135478 
2790.301804  	110.147654 
2791.733462  	110.126065 
2793.165121  	110.052050 
2794.596779  	110.016710 
2796.028437  	110.054071 
2797.460095  	110.048146 
2798.891753  	110.063415 
2800.323412  	110.144753 
2801.755070  	110.157056 
2803.186728  	110.139490 
2804.618386  	110.111019 
2806.050044  	110.038908 
2807.481703  	110.039466 
2808.913361  	110.065027 
2810.345019  	110.052405 
2811.776677  	110.070979 
2813.208335  	110.072238 
2814.639993  	110.086129 
2816.071652  	110.122831 
2817.503310  	110.080280 
2818.934968  	110.052602 
2820.366626  	110.049665 
2821.798284  	110.006674 
2823.229943  	110.032102 
2824.661601  	110.077309 
2826.093259  	110.096609 
2827.524917  	110.133225 
2828.956575  	110.068608 
2830.388233  	110.003572 
2831.819892  	110.089598 
2833.251550  	110.134392 
2834.683208  	110.073524 
2836.114866  	110.009736 
2837.546524  	109.950475 
2838.978183  	109.920144 
2840.409841  	109.901245 
2841.841499  	109.861713 
2843.273157  	109.820550 
2844.704815  	109.746130 
2846.136474  	109.598002 
2847.568132  	109.398382 
2848.999790  	109.275266 
2850.431448  	109.282143 
2851.863106  	109.287829 
2853.294764  	109.307950 
2854.726423  	109.399006 
2856.158081  	109.429030 
2857.589739  	109.396852 
2859.021397  	109.356009 
2860.453055  	109.251844 
2861.884714  	109.105249 
2863.316372  	108.928273 
2864.748030  	108.743438 
2866.179688  	108.597804 
2867.611346  	108.419446 
2869.043005  	108.205980 
2870.474663  	108.025969 
2871.906321  	107.893390 
2873.337979  	107.859243 
2874.769637  	107.877120 
2876.201295  	107.886327 
2877.632954  	107.995847 
2879.064612  	108.191741 
2880.496270  	108.353085 
2881.927928  	108.476466 
2883.359586  	108.560025 
2884.791245  	108.607959 
2886.222903  	108.639196 
2887.654561  	108.632234 
2889.086219  	108.588011 
2890.517877  	108.543423 
2891.949535  	108.570206 
2893.381194  	108.645863 
2894.812852  	108.660146 
2896.244510  	108.671439 
2897.676168  	108.721706 
2899.107826  	108.715615 
2900.539485  	108.704573 
2901.971143  	108.717367 
2903.402801  	108.652269 
2904.834459  	108.544368 
2906.266117  	108.461224 
2907.697776  	108.384314 
2909.129434  	108.285407 
2910.561092  	108.138594 
2911.992750  	108.003541 
2913.424408  	107.916319 
2914.856066  	107.796711 
2916.287725  	107.699231 
2917.719383  	107.720085 
2919.151041  	107.746278 
2920.582699  	107.714088 
2922.014357  	107.716498 
2923.446016  	107.730527 
2924.877674  	107.651018 
2926.309332  	107.509575 
2927.740990  	107.410158 
2929.172648  	107.356673 
2930.604306  	107.270289 
2932.035965  	107.156718 
2933.467623  	107.114647 
2934.899281  	107.131668 
2936.330939  	107.121489 
2937.762597  	107.140034 
2939.194256  	107.237137 
2940.625914  	107.302036 
2942.057572  	107.309155 
2943.489230  	107.356343 
2944.920888  	107.437295 
2946.352547  	107.489494 
2947.784205  	107.491591 
2949.215863  	107.423780 
2950.647521  	107.297030 
2952.079179  	107.133199 
2953.510837  	106.920495 
2954.942496  	106.658366 
2956.374154  	106.327358 
2957.805812  	105.887398 
2959.237470  	105.394430 
2960.669128  	104.920663 
2962.100787  	104.447985 
2963.532445  	103.984018 
2964.964103  	103.563082 
2966.395761  	103.256468 
2967.827419  	103.170930 
2969.259078  	103.216505 
2970.690736  	103.273292 
2972.122394  	103.432113 
2973.554052  	103.741792 
2974.985710  	104.148289 
2976.417368  	104.601215 
2977.849027  	105.041275 
2979.280685  	105.487155 
2980.712343  	105.954806 
2982.144001  	106.379914 
2983.575659  	106.768521 
2985.007318  	107.115162 
2986.438976  	107.403731 
2987.870634  	107.737735 
2989.302292  	108.096142 
2990.733950  	108.378608 
2992.165608  	108.630186 
2993.597267  	108.836560 
2995.028925  	109.003224 
2996.460583  	109.218114 
2997.892241  	109.400193 
2999.323899  	109.513353 
3000.755558  	109.633645 
3002.187216  	109.746709 
3003.618874  	109.872608 
3005.050532  	109.996729 
3006.482190  	110.065324 
3007.913849  	110.138512 
3009.345507  	110.197192 
3010.777165  	110.208886 
3012.208823  	110.247393 
3013.640481  	110.322132 
3015.072139  	110.409623 
3016.503798  	110.429535 
3017.935456  	110.356744 
3019.367114  	110.365327 
3020.798772  	110.450517 
3022.230430  	110.475085 
3023.662089  	110.464048 
3025.093747  	110.430787 
3026.525405  	110.423511 
3027.957063  	110.441165 
3029.388721  	110.314451 
3030.820380  	110.110248 
3032.252038  	109.988936 
3033.683696  	109.889530 
3035.115354  	109.795745 
3036.547012  	109.704955 
3037.978670  	109.570214 
3039.410329  	109.452344 
3040.841987  	109.382271 
3042.273645  	109.358884 
3043.705303  	109.418435 
3045.136961  	109.528360 
3046.568620  	109.613584 
3048.000278  	109.647511 
3049.431936  	109.701349 
3050.863594  	109.806059 
3052.295252  	109.795588 
3053.726910  	109.630754 
3055.158569  	109.526226 
3056.590227  	109.558159 
3058.021885  	109.607090 
3059.453543  	109.606256 
3060.885201  	109.578325 
3062.316860  	109.569476 
3063.748518  	109.627330 
3065.180176  	109.717316 
3066.611834  	109.728849 
3068.043492  	109.729928 
3069.475151  	109.860275 
3070.906809  	109.987356 
3072.338467  	110.002678 
3073.770125  	110.029079 
3075.201783  	110.076226 
3076.633441  	110.079464 
3078.065100  	110.098891 
3079.496758  	110.176765 
3080.928416  	110.246941 
3082.360074  	110.258867 
3083.791732  	110.300921 
3085.223391  	110.405462 
3086.655049  	110.465384 
3088.086707  	110.493567 
3089.518365  	110.507302 
3090.950023  	110.474319 
3092.381682  	110.512476 
3093.813340  	110.609941 
3095.244998  	110.628220 
3096.676656  	110.597676 
3098.108314  	110.546465 
3099.539972  	110.515639 
3100.971631  	110.568017 
3102.403289  	110.607353 
3103.834947  	110.613877 
3105.266605  	110.662729 
3106.698263  	110.726119 
3108.129922  	110.766130 
3109.561580  	110.751023 
3110.993238  	110.702826 
3112.424896  	110.672409 
3113.856554  	110.651171 
3115.288212  	110.673871 
3116.719871  	110.697407 
3118.151529  	110.672980 
3119.583187  	110.718066 
3121.014845  	110.779125 
3122.446503  	110.770213 
3123.878162  	110.800362 
3125.309820  	110.829995 
3126.741478  	110.822566 
3128.173136  	110.852692 
3129.604794  	110.876967 
3131.036453  	110.916164 
3132.468111  	110.991356 
3133.899769  	111.020897 
3135.331427  	111.005748 
3136.763085  	110.956226 
3138.194743  	110.935053 
3139.626402  	110.987078 
3141.058060  	110.996867 
3142.489718  	110.983174 
3143.921376  	111.002013 
3145.353034  	110.999294 
3146.784693  	111.027019 
3148.216351  	111.077631 
3149.648009  	111.099144 
3151.079667  	111.111825 
3152.511325  	111.061048 
3153.942983  	110.996549 
3155.374642  	110.994801 
3156.806300  	111.009697 
3158.237958  	111.078732 
3159.669616  	111.154197 
3161.101274  	111.161598 
3162.532933  	111.166438 
3163.964591  	111.123043 
3165.396249  	111.071066 
3166.827907  	111.096802 
3168.259565  	111.090446 
3169.691224  	111.102876 
3171.122882  	111.153299 
3172.554540  	111.105972 
3173.986198  	111.098124 
3175.417856  	111.181719 
3176.849514  	111.209755 
3178.281173  	111.201166 
3179.712831  	111.161694 
3181.144489  	111.131223 
3182.576147  	111.172653 
3184.007805  	111.186592 
3185.439464  	111.167615 
3186.871122  	111.147540 
3188.302780  	111.104678 
3189.734438  	111.108396 
3191.166096  	111.131712 
3192.597755  	111.122989 
3194.029413  	111.124970 
3195.461071  	111.146197 
3196.892729  	111.220699 
3198.324387  	111.284090 
3199.756045  	111.246689 
3201.187704  	111.208673 
3202.619362  	111.168725 
3204.051020  	111.127129 
3205.482678  	111.175846 
3206.914336  	111.173400 
3208.345995  	111.096769 
3209.777653  	111.138933 
3211.209311  	111.217073 
3212.640969  	111.206091 
3214.072627  	111.204526 
3215.504285  	111.255266 
3216.935944  	111.261629 
3218.367602  	111.187556 
3219.799260  	111.163840 
3221.230918  	111.236105 
3222.662576  	111.280013 
3224.094235  	111.283769 
3225.525893  	111.286501 
3226.957551  	111.273676 
3228.389209  	111.253810 
3229.820867  	111.226157 
3231.252526  	111.232348 
3232.684184  	111.274962 
3234.115842  	111.270445 
3235.547500  	111.253187 
3236.979158  	111.251631 
3238.410816  	111.225937 
3239.842475  	111.249798 
3241.274133  	111.329317 
3242.705791  	111.331941 
3244.137449  	111.256847 
3245.569107  	111.239417 
3247.000766  	111.280223 
3248.432424  	111.259845 
3249.864082  	111.252127 
3251.295740  	111.330766 
3252.727398  	111.356383 
3254.159057  	111.342099 
3255.590715  	111.349062 
3257.022373  	111.294604 
3258.454031  	111.252480 
3259.885689  	111.262221 
3261.317347  	111.247698 
3262.749006  	111.242716 
3264.180664  	111.204571 
3265.612322  	111.163384 
3267.043980  	111.260174 
3268.475638  	111.362830 
3269.907297  	111.328358 
3271.338955  	111.236032 
3272.770613  	111.215784 
3274.202271  	111.313086 
3275.633929  	111.349117 
3277.065587  	111.280644 
3278.497246  	111.269817 
3279.928904  	111.246504 
3281.360562  	111.225026 
3282.792220  	111.303548 
3284.223878  	111.319949 
3285.655537  	111.278321 
3287.087195  	111.254019 
3288.518853  	111.173251 
3289.950511  	111.152028 
3291.382169  	111.196839 
3292.813828  	111.174225 
3294.245486  	111.166505 
3295.677144  	111.165296 
3297.108802  	111.141652 
3298.540460  	111.194422 
3299.972118  	111.242625 
3301.403777  	111.210984 
3302.835435  	111.171218 
3304.267093  	111.179844 
3305.698751  	111.241168 
3307.130409  	111.256741 
3308.562068  	111.251690 
3309.993726  	111.340924 
3311.425384  	111.390864 
3312.857042  	111.350943 
3314.288700  	111.353584 
3315.720359  	111.388653 
3317.152017  	111.437604 
3318.583675  	111.460232 
3320.015333  	111.392234 
3321.446991  	111.359993 
3322.878649  	111.407961 
3324.310308  	111.449178 
3325.741966  	111.496078 
3327.173624  	111.498931 
3328.605282  	111.462653 
3330.036940  	111.509273 
3331.468599  	111.526987 
3332.900257  	111.420424 
3334.331915  	111.377201 
3335.763573  	111.466385 
3337.195231  	111.552818 
3338.626889  	111.535697 
3340.058548  	111.440849 
3341.490206  	111.428553 
3342.921864  	111.501107 
3344.353522  	111.467757 
3345.785180  	111.414122 
3347.216839  	111.508430 
3348.648497  	111.584472 
3350.080155  	111.517628 
3351.511813  	111.448181 
3352.943471  	111.482733 
3354.375130  	111.566596 
3355.806788  	111.591888 
3357.238446  	111.566064 
3358.670104  	111.554232 
3360.101762  	111.553845 
3361.533420  	111.579004 
3362.965079  	111.592269 
3364.396737  	111.572059 
3365.828395  	111.605594 
3367.260053  	111.603282 
3368.691711  	111.510183 
3370.123370  	111.512741 
3371.555028  	111.582443 
3372.986686  	111.616448 
3374.418344  	111.663034 
3375.850002  	111.665006 
3377.281660  	111.630712 
3378.713319  	111.621622 
3380.144977  	111.579663 
3381.576635  	111.519858 
3383.008293  	111.468322 
3384.439951  	111.494772 
3385.871610  	111.627073 
3387.303268  	111.622358 
3388.734926  	111.534608 
3390.166584  	111.592514 
3391.598242  	111.592747 
3393.029901  	111.505798 
3394.461559  	111.515129 
3395.893217  	111.522162 
3397.324875  	111.562102 
3398.756533  	111.652619 
3400.188191  	111.617636 
3401.619850  	111.557854 
3403.051508  	111.556232 
3404.483166  	111.521600 
3405.914824  	111.519501 
3407.346482  	111.586288 
3408.778141  	111.632008 
3410.209799  	111.614030 
3411.641457  	111.592178 
3413.073115  	111.623372 
3414.504773  	111.641807 
3415.936432  	111.653099 
3417.368090  	111.679729 
3418.799748  	111.616632 
3420.231406  	111.563845 
3421.663064  	111.643917 
3423.094722  	111.670952 
3424.526381  	111.603453 
3425.958039  	111.596869 
3427.389697  	111.624003 
3428.821355  	111.573511 
3430.253013  	111.540225 
3431.684672  	111.638652 
3433.116330  	111.675770 
3434.547988  	111.600669 
3435.979646  	111.643246 
3437.411304  	111.695636 
3438.842962  	111.627541 
3440.274621  	111.567722 
3441.706279  	111.489449 
3443.137937  	111.474445 
3444.569595  	111.592503 
3446.001253  	111.642654 
3447.432912  	111.696387 
3448.864570  	111.769234 
3450.296228  	111.676111 
3451.727886  	111.588503 
3453.159544  	111.577338 
3454.591203  	111.552152 
3456.022861  	111.583693 
3457.454519  	111.563636 
3458.886177  	111.471835 
3460.317835  	111.482834 
3461.749493  	111.501040 
3463.181152  	111.496053 
3464.612810  	111.584455 
3466.044468  	111.686955 
3467.476126  	111.727327 
3468.907784  	111.698327 
3470.339443  	111.653772 
3471.771101  	111.662850 
3473.202759  	111.666944 
3474.634417  	111.641482 
3476.066075  	111.612696 
3477.497734  	111.570578 
3478.929392  	111.523262 
3480.361050  	111.457667 
3481.792708  	111.452753 
3483.224366  	111.566272 
3484.656024  	111.630097 
3486.087683  	111.632228 
3487.519341  	111.666320 
3488.950999  	111.652244 
3490.382657  	111.613133 
3491.814315  	111.635815 
3493.245974  	111.667373 
3494.677632  	111.677581 
3496.109290  	111.667636 
3497.540948  	111.611735 
3498.972606  	111.539336 
3500.404264  	111.512924 
3501.835923  	111.515328 
3503.267581  	111.511505 
3504.699239  	111.546496 
3506.130897  	111.559621 
3507.562555  	111.497808 
3508.994214  	111.490947 
3510.425872  	111.520446 
3511.857530  	111.493467 
3513.289188  	111.507850 
3514.720846  	111.527941 
3516.152505  	111.497251 
3517.584163  	111.485756 
3519.015821  	111.452428 
3520.447479  	111.388183 
3521.879137  	111.364613 
3523.310795  	111.408006 
3524.742454  	111.413680 
3526.174112  	111.218222 
3527.605770  	111.080616 
3529.037428  	111.233025 
3530.469086  	111.348978 
3531.900745  	111.391745 
3533.332403  	111.446182 
3534.764061  	111.344832 
3536.195719  	111.309463 
3537.627377  	111.410839 
3539.059035  	111.371171 
3540.490694  	111.391447 
3541.922352  	111.472534 
3543.354010  	111.356465 
3544.785668  	111.261704 
3546.217326  	111.363207 
3547.648985  	111.525461 
3549.080643  	111.602005 
3550.512301  	111.511196 
3551.943959  	111.427028 
3553.375617  	111.494873 
3554.807276  	111.565239 
3556.238934  	111.544410 
3557.670592  	111.452204 
3559.102250  	111.444630 
3560.533908  	111.556925 
3561.965566  	111.540370 
3563.397225  	111.399995 
3564.828883  	111.240601 
3566.260541  	111.135180 
3567.692199  	111.395555 
3569.123857  	111.640603 
3570.555516  	111.515179 
3571.987174  	111.461491 
3573.418832  	111.479240 
3574.850490  	111.399142 
3576.282148  	111.393616 
3577.713807  	111.502333 
3579.145465  	111.607681 
3580.577123  	111.633928 
3582.008781  	111.567883 
3583.440439  	111.518213 
3584.872097  	111.402834 
3586.303756  	111.166039 
3587.735414  	111.211463 
3589.167072  	111.600346 
3590.598730  	111.649925 
3592.030388  	111.484558 
3593.462047  	111.375642 
3594.893705  	111.321511 
3596.325363  	111.367624 
3597.757021  	111.478185 
3599.188679  	111.442812 
3600.620337  	111.418946 
3602.051996  	111.551285 
3603.483654  	111.545985 
3604.915312  	111.493524 
3606.346970  	111.536604 
3607.778628  	111.506624 
3609.210287  	111.630653 
3610.641945  	111.784645 
3612.073603  	111.534622 
3613.505261  	111.393326 
3614.936919  	111.613167 
3616.368578  	111.520558 
3617.800236  	111.238481 
3619.231894  	111.281981 
3620.663552  	111.616688 
3622.095210  	111.677691 
3623.526868  	111.529636 
3624.958527  	111.524952 
3626.390185  	111.406219 
3627.821843  	110.933191 
3629.253501  	111.042425 
3630.685159  	111.794470 
3632.116818  	111.559728 
3633.548476  	111.383154 
3634.980134  	111.687086 
3636.411792  	111.759934 
3637.843450  	111.661020 
3639.275109  	111.727088 
3640.706767  	111.693910 
3642.138425  	111.592654 
3643.570083  	111.666460 
3645.001741  	111.606424 
3646.433399  	111.280757 
3647.865058  	111.047508 
3649.296716  	110.983297 
3650.728374  	111.219648 
3652.160032  	111.915955 
3653.591690  	111.884761 
3655.023349  	111.471689 
3656.455007  	111.565426 
3657.886665  	111.819618 
3659.318323  	111.613441 
3660.749981  	111.558287 
3662.181639  	111.651522 
3663.613298  	111.681469 
3665.044956  	111.717667 
3666.476614  	111.614032 
3667.908272  	111.325354 
3669.339930  	111.020454 
3670.771589  	111.233997 
3672.203247  	111.605955 
3673.634905  	111.188422 
3675.066563  	110.735053 
3676.498221  	111.620575 
3677.929880  	111.858130 
3679.361538  	111.612440 
3680.793196  	111.731366 
3682.224854  	111.673120 
3683.656512  	111.544672 
3685.088170  	111.546152 
3686.519829  	111.298172 
3687.951487  	111.148526 
3689.383145  	111.465537 
3690.814803  	111.547026 
3692.246461  	111.649457 
3693.678120  	111.788683 
3695.109778  	111.608886 
3696.541436  	111.506908 
3697.973094  	111.593108 
3699.404752  	111.491300 
3700.836411  	111.383350 
3702.268069  	111.600441 
3703.699727  	111.815946 
3705.131385  	111.766919 
3706.563043  	111.634207 
3707.994701  	111.496246 
3709.426360  	111.335394 
3710.858018  	111.211714 
3712.289676  	111.437875 
3713.721334  	111.981720 
3715.152992  	112.107362 
3716.584651  	111.825242 
3718.016309  	111.631451 
3719.447967  	111.607426 
3720.879625  	111.448431 
3722.311283  	111.309600 
3723.742941  	111.398961 
3725.174600  	111.440202 
3726.606258  	111.486186 
3728.037916  	111.701808 
3729.469574  	111.660150 
3730.901232  	111.401054 
3732.332891  	111.382249 
3733.764549  	111.381300 
3735.196207  	111.116345 
3736.627865  	111.581348 
3738.059523  	112.051240 
3739.491182  	111.878545 
3740.922840  	111.850301 
3742.354498  	111.584788 
3743.786156  	110.970588 
3745.217814  	111.560016 
3746.649472  	112.038534 
3748.081131  	111.462880 
3749.512789  	111.283012 
3750.944447  	111.461582 
3752.376105  	111.558569 
3753.807763  	112.031660 
3755.239422  	112.031496 
3756.671080  	111.902074 
3758.102738  	112.035502 
3759.534396  	111.918237 
3760.966054  	111.961874 
3762.397712  	112.183745 
3763.829371  	111.944786 
3765.261029  	111.805241 
3766.692687  	111.999966 
3768.124345  	111.860918 
3769.556003  	111.772292 
3770.987662  	112.056362 
3772.419320  	112.149761 
3773.850978  	112.073327 
3775.282636  	112.019178 
3776.714294  	111.938092 
3778.145953  	111.813622 
3779.577611  	111.825714 
3781.009269  	111.986641 
3782.440927  	111.878000 
3783.872585  	111.675376 
3785.304243  	111.766259 
3786.735902  	111.988243 
3788.167560  	112.068190 
3789.599218  	111.986591 
3791.030876  	111.875499 
3792.462534  	111.956683 
3793.894193  	111.986273 
3795.325851  	111.801678 
3796.757509  	111.785314 
3798.189167  	111.862541 
3799.620825  	111.589042 
3801.052484  	111.344552 
3802.484142  	111.881153 
3803.915800  	112.129180 
3805.347458  	111.670404 
3806.779116  	111.508105 
3808.210774  	112.148207 
3809.642433  	112.163147 
3811.074091  	111.850166 
3812.505749  	111.846586 
3813.937407  	111.700575 
3815.369065  	111.448260 
3816.800724  	111.933554 
3818.232382  	112.052939 
3819.664040  	111.460809 
3821.095698  	111.419094 
3822.527356  	112.236181 
3823.959014  	112.081344 
3825.390673  	111.800857 
3826.822331  	111.994050 
3828.253989  	112.053534 
3829.685647  	111.760689 
3831.117305  	111.640997 
3832.548964  	111.782192 
3833.980622  	111.841213 
3835.412280  	111.683376 
3836.843938  	111.495767 
3838.275596  	111.556053 
3839.707255  	111.703467 
3841.138913  	111.730041 
3842.570571  	111.810308 
3844.002229  	111.962863 
3845.433887  	112.073339 
3846.865545  	111.990132 
3848.297204  	111.832122 
3849.728862  	111.808929 
3851.160520  	111.619836 
3852.592178  	111.174385 
3854.023836  	111.610464 
3855.455495  	112.282994 
3856.887153  	112.136831 
3858.318811  	112.088080 
3859.750469  	111.964838 
3861.182127  	111.772461 
3862.613786  	111.719122 
3864.045444  	111.562578 
3865.477102  	111.707268 
3866.908760  	112.000206 
3868.340418  	111.614680 
3869.772076  	111.438137 
3871.203735  	112.156833 
3872.635393  	112.022294 
3874.067051  	111.751238 
3875.498709  	112.045910 
3876.930367  	112.017626 
3878.362026  	111.735841 
3879.793684  	111.655363 
3881.225342  	111.848655 
3882.657000  	111.942497 
3884.088658  	111.613817 
3885.520316  	111.387885 
3886.951975  	111.949739 
3888.383633  	112.079952 
3889.815291  	111.770780 
3891.246949  	111.830030 
3892.678607  	112.114101 
3894.110266  	112.089251 
3895.541924  	111.994660 
3896.973582  	111.790263 
3898.405240  	111.549167 
3899.836898  	111.583523 
3901.268557  	111.702989 
3902.700215  	111.643730 
3904.131873  	111.742161 
3905.563531  	112.057979 
3906.995189  	112.179859 
3908.426847  	112.133097 
3909.858506  	112.050268 
3911.290164  	112.001340 
3912.721822  	112.081337 
3914.153480  	112.124595 
3915.585138  	111.979056 
3917.016797  	111.875871 
3918.448455  	111.919026 
3919.880113  	111.920681 
3921.311771  	111.905531 
3922.743429  	111.838772 
3924.175088  	111.779636 
3925.606746  	111.912164 
3927.038404  	111.974089 
3928.470062  	111.887381 
3929.901720  	111.876629 
3931.333378  	111.844854 
3932.765037  	111.831547 
3934.196695  	111.989127 
3935.628353  	112.045570 
3937.060011  	112.014053 
3938.491669  	112.025947 
3939.923328  	111.927570 
3941.354986  	111.787293 
3942.786644  	111.810243 
3944.218302  	111.933705 
3945.649960  	111.988784 
3947.081618  	111.961017 
3948.513277  	111.968974 
3949.944935  	112.086424 
3951.376593  	112.126760 
3952.808251  	112.023579 
3954.239909  	111.934796 
3955.671568  	111.944702 
3957.103226  	112.031271 
3958.534884  	112.109174 
3959.966542  	112.092798 
3961.398200  	112.028422 
3962.829859  	112.032882 
3964.261517  	112.082366 
3965.693175  	112.056249 
3967.124833  	112.013157 
3968.556491  	112.037144 
3969.988149  	112.009673 
3971.419808  	111.926789 
3972.851466  	111.916355 
3974.283124  	111.915416 
3975.714782  	111.880472 
3977.146440  	111.902863 
3978.578099  	111.977198 
3980.009757  	112.017374 
3981.441415  	111.981252 
3982.873073  	111.917872 
3984.304731  	111.900108 
3985.736389  	111.948933 
3987.168048  	112.018370 
3988.599706  	111.984049 
3990.031364  	111.906426 
3991.463022  	111.953527 
3992.894680  	111.986290 
3994.326339  	111.977934 
3995.757997  	112.100257 
3997.189655  	112.146075 
3998.621313  	112.019182 
4000.052971  	111.980150 