##TITLE=No Description
##DATA TYPE=INFRARED SPECTRUM
##XUNITS=1/CM
##YUNITS=Abs
399.432634  	0.068971 
400.864292  	0.054986 
402.295950  	0.066072 
403.727608  	0.090586 
405.159267  	0.095643 
406.590925  	0.075966 
408.022583  	0.066997 
409.454241  	0.080989 
410.885899  	0.094138 
412.317558  	0.081806 
413.749216  	0.049442 
415.180874  	0.044023 
416.612532  	0.071127 
418.044190  	0.088112 
419.475848  	0.062354 
420.907507  	0.042693 
422.339165  	0.042005 
423.770823  	0.060564 
425.202481  	0.069783 
426.634139  	0.049423 
428.065798  	0.039482 
429.497456  	0.046444 
430.929114  	0.048286 
432.360772  	0.052500 
433.792430  	0.056997 
435.224089  	0.056160 
436.655747  	0.058403 
438.087405  	0.060922 
439.519063  	0.060005 
440.950721  	0.058302 
442.382379  	0.064226 
443.814038  	0.080209 
445.245696  	0.076836 
446.677354  	0.056701 
448.109012  	0.053986 
449.540670  	0.058130 
450.972329  	0.054982 
452.403987  	0.060771 
453.835645  	0.067165 
455.267303  	0.062806 
456.698961  	0.059546 
458.130619  	0.062301 
459.562278  	0.065935 
460.993936  	0.065711 
462.425594  	0.063681 
463.857252  	0.063754 
465.288910  	0.062840 
466.720569  	0.065185 
468.152227  	0.072300 
469.583885  	0.072259 
471.015543  	0.070174 
472.447201  	0.075514 
473.878860  	0.079292 
475.310518  	0.076749 
476.742176  	0.075857 
478.173834  	0.082969 
479.605492  	0.093473 
481.037150  	0.098153 
482.468809  	0.097407 
483.900467  	0.096641 
485.332125  	0.101735 
486.763783  	0.111092 
488.195441  	0.110937 
489.627100  	0.103446 
491.058758  	0.106272 
492.490416  	0.116339 
493.922074  	0.121141 
495.353732  	0.123586 
496.785391  	0.129098 
498.217049  	0.138786 
499.648707  	0.150731 
501.080365  	0.167085 
502.512023  	0.192450 
503.943681  	0.219283 
505.375340  	0.249100 
506.806998  	0.284804 
508.238656  	0.298811 
509.670314  	0.282989 
511.101972  	0.262420 
512.533631  	0.246694 
513.965289  	0.232759 
515.396947  	0.216347 
516.828605  	0.195366 
518.260263  	0.174270 
519.691921  	0.153677 
521.123580  	0.133084 
522.555238  	0.118244 
523.986896  	0.108513 
525.418554  	0.100041 
526.850212  	0.093322 
528.281871  	0.087539 
529.713529  	0.082923 
531.145187  	0.082735 
532.576845  	0.084538 
534.008503  	0.083714 
535.440162  	0.082520 
536.871820  	0.082880 
538.303478  	0.081936 
539.735136  	0.081039 
541.166794  	0.083145 
542.598452  	0.084733 
544.030111  	0.084135 
545.461769  	0.083998 
546.893427  	0.083579 
548.325085  	0.082974 
549.756743  	0.084368 
551.188402  	0.085918 
552.620060  	0.086082 
554.051718  	0.085976 
555.483376  	0.085343 
556.915034  	0.084613 
558.346692  	0.085389 
559.778351  	0.087474 
561.210009  	0.088980 
562.641667  	0.089258 
564.073325  	0.089953 
565.504983  	0.091474 
566.936642  	0.092163 
568.368300  	0.092234 
569.799958  	0.092764 
571.231616  	0.093619 
572.663274  	0.095154 
574.094933  	0.097657 
575.526591  	0.100843 
576.958249  	0.103823 
578.389907  	0.105153 
579.821565  	0.104914 
581.253223  	0.104202 
582.684882  	0.103719 
584.116540  	0.103740 
585.548198  	0.103782 
586.979856  	0.103496 
588.411514  	0.103936 
589.843173  	0.104772 
591.274831  	0.105002 
592.706489  	0.106639 
594.138147  	0.109894 
595.569805  	0.111630 
597.001464  	0.112365 
598.433122  	0.114930 
599.864780  	0.119262 
601.296438  	0.124262 
602.728096  	0.130589 
604.159754  	0.139486 
605.591413  	0.149989 
607.023071  	0.160832 
608.454729  	0.170690 
609.886387  	0.173940 
611.318045  	0.169675 
612.749704  	0.162994 
614.181362  	0.155507 
615.613020  	0.148015 
617.044678  	0.142375 
618.476336  	0.138657 
619.907994  	0.136559 
621.339653  	0.136190 
622.771311  	0.136622 
624.202969  	0.137777 
625.634627  	0.139229 
627.066285  	0.140350 
628.497944  	0.142401 
629.929602  	0.144803 
631.361260  	0.146954 
632.792918  	0.150557 
634.224576  	0.154707 
635.656235  	0.157483 
637.087893  	0.158681 
638.519551  	0.159394 
639.951209  	0.160902 
641.382867  	0.161434 
642.814525  	0.160720 
644.246184  	0.161550 
645.677842  	0.162442 
647.109500  	0.162370 
648.541158  	0.163176 
649.972816  	0.163247 
651.404475  	0.163492 
652.836133  	0.166043 
654.267791  	0.166775 
655.699449  	0.164644 
657.131107  	0.163419 
658.562766  	0.163264 
659.994424  	0.163067 
661.426082  	0.162484 
662.857740  	0.160615 
664.289398  	0.158608 
665.721056  	0.159334 
667.152715  	0.165145 
668.584373  	0.168975 
670.016031  	0.160063 
671.447689  	0.154683 
672.879347  	0.153889 
674.311006  	0.152890 
675.742664  	0.149880 
677.174322  	0.147448 
678.605980  	0.145554 
680.037638  	0.142961 
681.469296  	0.140273 
682.900955  	0.137881 
684.332613  	0.135874 
685.764271  	0.134096 
687.195929  	0.131625 
688.627587  	0.128737 
690.059246  	0.126010 
691.490904  	0.123088 
692.922562  	0.120408 
694.354220  	0.118507 
695.785878  	0.117097 
697.217537  	0.115536 
698.649195  	0.113681 
700.080853  	0.113126 
701.512511  	0.114085 
702.944169  	0.114781 
704.375827  	0.115842 
705.807486  	0.117780 
707.239144  	0.118278 
708.670802  	0.116612 
710.102460  	0.114312 
711.534118  	0.111624 
712.965777  	0.108464 
714.397435  	0.106002 
715.829093  	0.104951 
717.260751  	0.104725 
718.692409  	0.104880 
720.124067  	0.105212 
721.555726  	0.105125 
722.987384  	0.104873 
724.419042  	0.104863 
725.850700  	0.104771 
727.282358  	0.104756 
728.714017  	0.104764 
730.145675  	0.104361 
731.577333  	0.104182 
733.008991  	0.104666 
734.440649  	0.105504 
735.872308  	0.107013 
737.303966  	0.109637 
738.735624  	0.113470 
740.167282  	0.118359 
741.598940  	0.123931 
743.030598  	0.130471 
744.462257  	0.138231 
745.893915  	0.145576 
747.325573  	0.150661 
748.757231  	0.153601 
750.188889  	0.154480 
751.620548  	0.153216 
753.052206  	0.151147 
754.483864  	0.149826 
755.915522  	0.150131 
757.347180  	0.152534 
758.778839  	0.157054 
760.210497  	0.163794 
761.642155  	0.173502 
763.073813  	0.187023 
764.505471  	0.204595 
765.937129  	0.224632 
767.368788  	0.243548 
768.800446  	0.257196 
770.232104  	0.261795 
771.663762  	0.254810 
773.095420  	0.235945 
774.527079  	0.210791 
775.958737  	0.185954 
777.390395  	0.163537 
778.822053  	0.145726 
780.253711  	0.133367 
781.685369  	0.123403 
783.117028  	0.112449 
784.548686  	0.099624 
785.980344  	0.086679 
787.412002  	0.075564 
788.843660  	0.067115 
790.275319  	0.061812 
791.706977  	0.059095 
793.138635  	0.058331 
794.570293  	0.059619 
796.001951  	0.062485 
797.433610  	0.066377 
798.865268  	0.071801 
800.296926  	0.079264 
801.728584  	0.088389 
803.160242  	0.098740 
804.591900  	0.110060 
806.023559  	0.122194 
807.455217  	0.134815 
808.886875  	0.147203 
810.318533  	0.159310 
811.750191  	0.170456 
813.181850  	0.179392 
814.613508  	0.185914 
816.045166  	0.188099 
817.476824  	0.183443 
818.908482  	0.171933 
820.340141  	0.155609 
821.771799  	0.138261 
823.203457  	0.123036 
824.635115  	0.111135 
826.066773  	0.102415 
827.498431  	0.096214 
828.930090  	0.091814 
830.361748  	0.088808 
831.793406  	0.087169 
833.225064  	0.086201 
834.656722  	0.085251 
836.088381  	0.084917 
837.520039  	0.085726 
838.951697  	0.087703 
840.383355  	0.090969 
841.815013  	0.095214 
843.246671  	0.099904 
844.678330  	0.104195 
846.109988  	0.106900 
847.541646  	0.108024 
848.973304  	0.107651 
850.404962  	0.104639 
851.836621  	0.099736 
853.268279  	0.094703 
854.699937  	0.089504 
856.131595  	0.084403 
857.563253  	0.080429 
858.994912  	0.078037 
860.426570  	0.076705 
861.858228  	0.074910 
863.289886  	0.071634 
864.721544  	0.066596 
866.153202  	0.059462 
867.584861  	0.050925 
869.016519  	0.042179 
870.448177  	0.033829 
871.879835  	0.026457 
873.311493  	0.020819 
874.743152  	0.017059 
876.174810  	0.014411 
877.606468  	0.012723 
879.038126  	0.012174 
880.469784  	0.011905 
881.901443  	0.011600 
883.333101  	0.011915 
884.764759  	0.012652 
886.196417  	0.013299 
887.628075  	0.013982 
889.059733  	0.014745 
890.491392  	0.015665 
891.923050  	0.016818 
893.354708  	0.017777 
894.786366  	0.018678 
896.218024  	0.019993 
897.649683  	0.021249 
899.081341  	0.022349 
900.512999  	0.023929 
901.944657  	0.025840 
903.376315  	0.027782 
904.807973  	0.030185 
906.239632  	0.033632 
907.671290  	0.038092 
909.102948  	0.043100 
910.534606  	0.048825 
911.966264  	0.054835 
913.397923  	0.059195 
914.829581  	0.060657 
916.261239  	0.059035 
917.692897  	0.055399 
919.124555  	0.051597 
920.556214  	0.048087 
921.987872  	0.045163 
923.419530  	0.043488 
924.851188  	0.042745 
926.282846  	0.043255 
927.714504  	0.045356 
929.146163  	0.047747 
930.577821  	0.050135 
932.009479  	0.053094 
933.441137  	0.056199 
934.872795  	0.059257 
936.304454  	0.062506 
937.736112  	0.066222 
939.167770  	0.070083 
940.599428  	0.073158 
942.031086  	0.075906 
943.462744  	0.078934 
944.894403  	0.081628 
946.326061  	0.084084 
947.757719  	0.086794 
949.189377  	0.089701 
950.621035  	0.092773 
952.052694  	0.096077 
953.484352  	0.099649 
954.916010  	0.102909 
956.347668  	0.105498 
957.779326  	0.107928 
959.210985  	0.109884 
960.642643  	0.110862 
962.074301  	0.111070 
963.505959  	0.110499 
964.937617  	0.109243 
966.369275  	0.107619 
967.800934  	0.106151 
969.232592  	0.105361 
970.664250  	0.105281 
972.095908  	0.106178 
973.527566  	0.107982 
974.959225  	0.110104 
976.390883  	0.112929 
977.822541  	0.116213 
979.254199  	0.118809 
980.685857  	0.120784 
982.117516  	0.121880 
983.549174  	0.121276 
984.980832  	0.118917 
986.412490  	0.115335 
987.844148  	0.111851 
989.275806  	0.109212 
990.707465  	0.107600 
992.139123  	0.107577 
993.570781  	0.108377 
995.002439  	0.109270 
996.434097  	0.111204 
997.865756  	0.114122 
999.297414  	0.117482 
1000.729072  	0.121261 
1002.160730  	0.124984 
1003.592388  	0.129219 
1005.024046  	0.134474 
1006.455705  	0.140137 
1007.887363  	0.146445 
1009.319021  	0.153826 
1010.750679  	0.162820 
1012.182337  	0.174327 
1013.613996  	0.189696 
1015.045654  	0.211397 
1016.477312  	0.235460 
1017.908970  	0.247372 
1019.340628  	0.236571 
1020.772287  	0.209720 
1022.203945  	0.183157 
1023.635603  	0.165607 
1025.067261  	0.157999 
1026.498919  	0.159516 
1027.930577  	0.166496 
1029.362236  	0.174991 
1030.793894  	0.184816 
1032.225552  	0.195285 
1033.657210  	0.205275 
1035.088868  	0.214789 
1036.520527  	0.222637 
1037.952185  	0.229429 
1039.383843  	0.236083 
1040.815501  	0.242757 
1042.247159  	0.251715 
1043.678818  	0.262995 
1045.110476  	0.275808 
1046.542134  	0.290955 
1047.973792  	0.307146 
1049.405450  	0.324660 
1050.837108  	0.343469 
1052.268767  	0.362342 
1053.700425  	0.383566 
1055.132083  	0.404600 
1056.563741  	0.423340 
1057.995399  	0.442616 
1059.427058  	0.458584 
1060.858716  	0.470913 
1062.290374  	0.480943 
1063.722032  	0.485861 
1065.153690  	0.489691 
1066.585348  	0.491743 
1068.017007  	0.491241 
1069.448665  	0.492616 
1070.880323  	0.491788 
1072.311981  	0.490074 
1073.743639  	0.490353 
1075.175298  	0.487461 
1076.606956  	0.483321 
1078.038614  	0.476615 
1079.470272  	0.463800 
1080.901930  	0.447399 
1082.333589  	0.423941 
1083.765247  	0.393549 
1085.196905  	0.359633 
1086.628563  	0.325359 
1088.060221  	0.299360 
1089.491879  	0.284302 
1090.923538  	0.277611 
1092.355196  	0.278150 
1093.786854  	0.281778 
1095.218512  	0.286328 
1096.650170  	0.292830 
1098.081829  	0.299000 
1099.513487  	0.305812 
1100.945145  	0.313686 
1102.376803  	0.319083 
1103.808461  	0.323146 
1105.240120  	0.324964 
1106.671778  	0.322592 
1108.103436  	0.318138 
1109.535094  	0.311266 
1110.966752  	0.302443 
1112.398410  	0.290912 
1113.830069  	0.274904 
1115.261727  	0.257893 
1116.693385  	0.241628 
1118.125043  	0.226176 
1119.556701  	0.212346 
1120.988360  	0.198531 
1122.420018  	0.184169 
1123.851676  	0.169882 
1125.283334  	0.155528 
1126.714992  	0.141430 
1128.146650  	0.127385 
1129.578309  	0.113856 
1131.009967  	0.101979 
1132.441625  	0.091416 
1133.873283  	0.081659 
1135.304941  	0.073136 
1136.736600  	0.066013 
1138.168258  	0.059900 
1139.599916  	0.054682 
1141.031574  	0.050245 
1142.463232  	0.046395 
1143.894891  	0.043230 
1145.326549  	0.040552 
1146.758207  	0.038164 
1148.189865  	0.036046 
1149.621523  	0.034202 
1151.053181  	0.032911 
1152.484840  	0.031870 
1153.916498  	0.030992 
1155.348156  	0.030792 
1156.779814  	0.030850 
1158.211472  	0.031396 
1159.643131  	0.032903 
1161.074789  	0.034414 
1162.506447  	0.036338 
1163.938105  	0.039508 
1165.369763  	0.043144 
1166.801421  	0.047070 
1168.233080  	0.051620 
1169.664738  	0.057101 
1171.096396  	0.063648 
1172.528054  	0.070899 
1173.959712  	0.079233 
1175.391371  	0.088988 
1176.823029  	0.100528 
1178.254687  	0.114224 
1179.686345  	0.128416 
1181.118003  	0.141008 
1182.549662  	0.150689 
1183.981320  	0.158717 
1185.412978  	0.168193 
1186.844636  	0.179600 
1188.276294  	0.193399 
1189.707952  	0.209871 
1191.139611  	0.227357 
1192.571269  	0.246880 
1194.002927  	0.268440 
1195.434585  	0.291315 
1196.866243  	0.318042 
1198.297902  	0.347380 
1199.729560  	0.378200 
1201.161218  	0.408916 
1202.592876  	0.432532 
1204.024534  	0.448571 
1205.456193  	0.456183 
1206.887851  	0.455800 
1208.319509  	0.456195 
1209.751167  	0.460267 
1211.182825  	0.471617 
1212.614483  	0.492803 
1214.046142  	0.517123 
1215.477800  	0.542433 
1216.909458  	0.563284 
1218.341116  	0.573485 
1219.772774  	0.577834 
1221.204433  	0.572837 
1222.636091  	0.561170 
1224.067749  	0.548808 
1225.499407  	0.531298 
1226.931065  	0.513405 
1228.362723  	0.495988 
1229.794382  	0.475606 
1231.226040  	0.455883 
1232.657698  	0.433402 
1234.089356  	0.408189 
1235.521014  	0.383357 
1236.952673  	0.355365 
1238.384331  	0.326414 
1239.815989  	0.298141 
1241.247647  	0.269891 
1242.679305  	0.245392 
1244.110964  	0.225498 
1245.542622  	0.210827 
1246.974280  	0.204037 
1248.405938  	0.204261 
1249.837596  	0.208545 
1251.269254  	0.212597 
1252.700913  	0.211134 
1254.132571  	0.202857 
1255.564229  	0.187515 
1256.995887  	0.166853 
1258.427545  	0.145494 
1259.859204  	0.125002 
1261.290862  	0.106226 
1262.722520  	0.090548 
1264.154178  	0.078025 
1265.585836  	0.068735 
1267.017495  	0.062688 
1268.449153  	0.058842 
1269.880811  	0.056524 
1271.312469  	0.055476 
1272.744127  	0.055011 
1274.175785  	0.054950 
1275.607444  	0.054820 
1277.039102  	0.054040 
1278.470760  	0.053078 
1279.902418  	0.051925 
1281.334076  	0.050486 
1282.765735  	0.049383 
1284.197393  	0.048659 
1285.629051  	0.048332 
1287.060709  	0.048697 
1288.492367  	0.050235 
1289.924025  	0.053861 
1291.355684  	0.059601 
1292.787342  	0.067405 
1294.219000  	0.077308 
1295.650658  	0.089233 
1297.082316  	0.104442 
1298.513975  	0.123022 
1299.945633  	0.144800 
1301.377291  	0.169842 
1302.808949  	0.195786 
1304.240607  	0.221462 
1305.672266  	0.242964 
1307.103924  	0.256549 
1308.535582  	0.262795 
1309.967240  	0.259402 
1311.398898  	0.248910 
1312.830556  	0.234108 
1314.262215  	0.216897 
1315.693873  	0.202889 
1317.125531  	0.190349 
1318.557189  	0.174307 
1319.988847  	0.153178 
1321.420506  	0.128652 
1322.852164  	0.105507 
1324.283822  	0.085649 
1325.715480  	0.069596 
1327.147138  	0.057077 
1328.578796  	0.047055 
1330.010455  	0.039642 
1331.442113  	0.034219 
1332.873771  	0.030506 
1334.305429  	0.028340 
1335.737087  	0.027220 
1337.168746  	0.027336 
1338.600404  	0.027918 
1340.032062  	0.028336 
1341.463720  	0.028433 
1342.895378  	0.028007 
1344.327037  	0.027687 
1345.758695  	0.027682 
1347.190353  	0.028245 
1348.622011  	0.029935 
1350.053669  	0.032155 
1351.485327  	0.035039 
1352.916986  	0.038640 
1354.348644  	0.042185 
1355.780302  	0.045863 
1357.211960  	0.048987 
1358.643618  	0.051395 
1360.075277  	0.053906 
1361.506935  	0.055997 
1362.938593  	0.057359 
1364.370251  	0.058230 
1365.801909  	0.058952 
1367.233568  	0.059596 
1368.665226  	0.059391 
1370.096884  	0.058426 
1371.528542  	0.057321 
1372.960200  	0.055883 
1374.391858  	0.053656 
1375.823517  	0.050940 
1377.255175  	0.048700 
1378.686833  	0.046305 
1380.118491  	0.043345 
1381.550149  	0.040581 
1382.981808  	0.038285 
1384.413466  	0.037142 
1385.845124  	0.037087 
1387.276782  	0.036912 
1388.708440  	0.036077 
1390.140098  	0.035220 
1391.571757  	0.034228 
1393.003415  	0.033726 
1394.435073  	0.034292 
1395.866731  	0.035499 
1397.298389  	0.037905 
1398.730048  	0.042104 
1400.161706  	0.047758 
1401.593364  	0.055512 
1403.025022  	0.066543 
1404.456680  	0.082538 
1405.888339  	0.106516 
1407.319997  	0.137398 
1408.751655  	0.174105 
1410.183313  	0.217430 
1411.614971  	0.253686 
1413.046629  	0.267654 
1414.478288  	0.258142 
1415.909946  	0.222393 
1417.341604  	0.179517 
1418.773262  	0.133334 
1420.204920  	0.079875 
1421.636579  	0.054136 
1423.068237  	0.040738 
1424.499895  	0.028760 
1425.931553  	0.026398 
1427.363211  	0.027892 
1428.794870  	0.031932 
1430.226528  	0.039915 
1431.658186  	0.046067 
1433.089844  	0.051776 
1434.521502  	0.056290 
1435.953160  	0.057156 
1437.384819  	0.053185 
1438.816477  	0.048319 
1440.248135  	0.044778 
1441.679793  	0.042976 
1443.111451  	0.043655 
1444.543110  	0.047160 
1445.974768  	0.051217 
1447.406426  	0.052541 
1448.838084  	0.051759 
1450.269742  	0.050507 
1451.701400  	0.049278 
1453.133059  	0.049112 
1454.564717  	0.049841 
1455.996375  	0.051110 
1457.428033  	0.050916 
1458.859691  	0.048407 
1460.291350  	0.049025 
1461.723008  	0.051841 
1463.154666  	0.055487 
1464.586324  	0.060358 
1466.017982  	0.064112 
1467.449641  	0.067629 
1468.881299  	0.072423 
1470.312957  	0.076974 
1471.744615  	0.082870 
1473.176273  	0.088719 
1474.607931  	0.092903 
1476.039590  	0.100416 
1477.471248  	0.106022 
1478.902906  	0.106170 
1480.334564  	0.101781 
1481.766222  	0.090783 
1483.197881  	0.081119 
1484.629539  	0.074035 
1486.061197  	0.068423 
1487.492855  	0.066505 
1488.924513  	0.063934 
1490.356172  	0.064118 
1491.787830  	0.067618 
1493.219488  	0.070817 
1494.651146  	0.078804 
1496.082804  	0.088564 
1497.514462  	0.097963 
1498.946121  	0.113233 
1500.377779  	0.126580 
1501.809437  	0.142266 
1503.241095  	0.162870 
1504.672753  	0.179675 
1506.104412  	0.203470 
1507.536070  	0.242534 
1508.967728  	0.267149 
1510.399386  	0.300317 
1511.831044  	0.328923 
1513.262702  	0.351288 
1514.694361  	0.376695 
1516.126019  	0.387639 
1517.557677  	0.403271 
1518.989335  	0.427798 
1520.420993  	0.438769 
1521.852652  	0.468879 
1523.284310  	0.485662 
1524.715968  	0.491373 
1526.147626  	0.505391 
1527.579284  	0.493335 
1529.010943  	0.484863 
1530.442601  	0.475845 
1531.874259  	0.453667 
1533.305917  	0.435160 
1534.737575  	0.396245 
1536.169233  	0.368847 
1537.600892  	0.354421 
1539.032550  	0.318775 
1540.464208  	0.275872 
1541.895866  	0.244615 
1543.327524  	0.212295 
1544.759183  	0.188136 
1546.190841  	0.158151 
1547.622499  	0.135972 
1549.054157  	0.119695 
1550.485815  	0.095015 
1551.917473  	0.077991 
1553.349132  	0.066527 
1554.780790  	0.050167 
1556.212448  	0.040333 
1557.644106  	0.035273 
1559.075764  	0.024932 
1560.507423  	0.015488 
1561.939081  	0.012791 
1563.370739  	0.011211 
1564.802397  	0.009306 
1566.234055  	0.006554 
1567.665714  	0.004748 
1569.097372  	0.002212 
1570.529030  	-0.002129 
1571.960688  	-0.004740 
1573.392346  	-0.005887 
1574.824004  	-0.006159 
1576.255663  	-0.005650 
1577.687321  	-0.004615 
1579.118979  	-0.002981 
1580.550637  	0.000229 
1581.982295  	0.005325 
1583.413954  	0.012128 
1584.845612  	0.022641 
1586.277270  	0.036435 
1587.708928  	0.054176 
1589.140586  	0.077999 
1590.572245  	0.102789 
1592.003903  	0.128711 
1593.435561  	0.151591 
1594.867219  	0.163689 
1596.298877  	0.170061 
1597.730535  	0.165219 
1599.162194  	0.152815 
1600.593852  	0.139216 
1602.025510  	0.121497 
1603.457168  	0.106347 
1604.888826  	0.094567 
1606.320485  	0.084614 
1607.752143  	0.079689 
1609.183801  	0.076571 
1610.615459  	0.074934 
1612.047117  	0.074540 
1613.478775  	0.070810 
1614.910434  	0.067252 
1616.342092  	0.059422 
1617.773750  	0.042529 
1619.205408  	0.032667 
1620.637066  	0.023867 
1622.068725  	0.015244 
1623.500383  	0.009952 
1624.932041  	0.004381 
1626.363699  	0.002257 
1627.795357  	0.002757 
1629.227016  	0.001663 
1630.658674  	0.003641 
1632.090332  	0.007526 
1633.521990  	0.010570 
1634.953648  	0.016404 
1636.385306  	0.019276 
1637.816965  	0.015106 
1639.248623  	0.011686 
1640.680281  	0.005403 
1642.111939  	0.001273 
1643.543597  	-0.000540 
1644.975256  	-0.002903 
1646.406914  	-0.001934 
1647.838572  	-0.003889 
1649.270230  	-0.005599 
1650.701888  	-0.003385 
1652.133547  	-0.003629 
1653.565205  	-0.002072 
1654.996863  	0.000177 
1656.428521  	-0.000644 
1657.860179  	0.002592 
1659.291837  	0.004779 
1660.723496  	0.006128 
1662.155154  	0.011165 
1663.586812  	0.012718 
1665.018470  	0.015606 
1666.450128  	0.020685 
1667.881787  	0.022533 
1669.313445  	0.028977 
1670.745103  	0.034853 
1672.176761  	0.038099 
1673.608419  	0.048040 
1675.040077  	0.055210 
1676.471736  	0.064961 
1677.903394  	0.079241 
1679.335052  	0.088974 
1680.766710  	0.106937 
1682.198368  	0.125368 
1683.630027  	0.136351 
1685.061685  	0.172968 
1686.493343  	0.195929 
1687.925001  	0.217307 
1689.356659  	0.255076 
1690.788318  	0.286325 
1692.219976  	0.323258 
1693.651634  	0.365282 
1695.083292  	0.391078 
1696.514950  	0.426418 
1697.946608  	0.449382 
1699.378267  	0.444874 
1700.809925  	0.413042 
1702.241583  	0.380821 
1703.673241  	0.357257 
1705.104899  	0.324308 
1706.536558  	0.285944 
1707.968216  	0.257324 
1709.399874  	0.234889 
1710.831532  	0.213633 
1712.263190  	0.194617 
1713.694849  	0.181064 
1715.126507  	0.166045 
1716.558165  	0.152049 
1717.989823  	0.142118 
1719.421481  	0.128736 
1720.853139  	0.123624 
1722.284798  	0.122568 
1723.716456  	0.120049 
1725.148114  	0.121260 
1726.579772  	0.123140 
1728.011430  	0.122851 
1729.443089  	0.122438 
1730.874747  	0.116470 
1732.306405  	0.109248 
1733.738063  	0.100569 
1735.169721  	0.075952 
1736.601379  	0.063319 
1738.033038  	0.053410 
1739.464696  	0.036438 
1740.896354  	0.023326 
1742.328012  	0.012488 
1743.759670  	0.001799 
1745.191329  	-0.004578 
1746.622987  	-0.011787 
1748.054645  	-0.016128 
1749.486303  	-0.019149 
1750.917961  	-0.024740 
1752.349620  	-0.025958 
1753.781278  	-0.028147 
1755.212936  	-0.030171 
1756.644594  	-0.029508 
1758.076252  	-0.031957 
1759.507910  	-0.032567 
1760.939569  	-0.031757 
1762.371227  	-0.034001 
1763.802885  	-0.033710 
1765.234543  	-0.033928 
1766.666201  	-0.034757 
1768.097860  	-0.033371 
1769.529518  	-0.034735 
1770.961176  	-0.034774 
1772.392834  	-0.033116 
1773.824492  	-0.035807 
1775.256150  	-0.035276 
1776.687809  	-0.034893 
1778.119467  	-0.036108 
1779.551125  	-0.034794 
1780.982783  	-0.035335 
1782.414441  	-0.036133 
1783.846100  	-0.035071 
1785.277758  	-0.036109 
1786.709416  	-0.035756 
1788.141074  	-0.035205 
1789.572732  	-0.035957 
1791.004391  	-0.034516 
1792.436049  	-0.035219 
1793.867707  	-0.036649 
1795.299365  	-0.035509 
1796.731023  	-0.036674 
1798.162681  	-0.036620 
1799.594340  	-0.035417 
1801.025998  	-0.036683 
1802.457656  	-0.036484 
1803.889314  	-0.036891 
1805.320972  	-0.037834 
1806.752631  	-0.036947 
1808.184289  	-0.037703 
1809.615947  	-0.037726 
1811.047605  	-0.036698 
1812.479263  	-0.038141 
1813.910922  	-0.038121 
1815.342580  	-0.038189 
1816.774238  	-0.039305 
1818.205896  	-0.038515 
1819.637554  	-0.039181 
1821.069212  	-0.039590 
1822.500871  	-0.038557 
1823.932529  	-0.039403 
1825.364187  	-0.039100 
1826.795845  	-0.039192 
1828.227503  	-0.040432 
1829.659162  	-0.039229 
1831.090820  	-0.040128 
1832.522478  	-0.041189 
1833.954136  	-0.040221 
1835.385794  	-0.041194 
1836.817452  	-0.041092 
1838.249111  	-0.040550 
1839.680769  	-0.041757 
1841.112427  	-0.040907 
1842.544085  	-0.040946 
1843.975743  	-0.042137 
1845.407402  	-0.041297 
1846.839060  	-0.042446 
1848.270718  	-0.042554 
1849.702376  	-0.041830 
1851.134034  	-0.042641 
1852.565693  	-0.041865 
1853.997351  	-0.042342 
1855.429009  	-0.043366 
1856.860667  	-0.042014 
1858.292325  	-0.042713 
1859.723983  	-0.042866 
1861.155642  	-0.041842 
1862.587300  	-0.043192 
1864.018958  	-0.042672 
1865.450616  	-0.042004 
1866.882274  	-0.042355 
1868.313933  	-0.040570 
1869.745591  	-0.041780 
1871.177249  	-0.042526 
1872.608907  	-0.041031 
1874.040565  	-0.042341 
1875.472224  	-0.042250 
1876.903882  	-0.041392 
1878.335540  	-0.042504 
1879.767198  	-0.041827 
1881.198856  	-0.042434 
1882.630514  	-0.043284 
1884.062173  	-0.041948 
1885.493831  	-0.042719 
1886.925489  	-0.042172 
1888.357147  	-0.040710 
1889.788805  	-0.041859 
1891.220464  	-0.040964 
1892.652122  	-0.040528 
1894.083780  	-0.040796 
1895.515438  	-0.039199 
1896.947096  	-0.040031 
1898.378754  	-0.040432 
1899.810413  	-0.039707 
1901.242071  	-0.040288 
1902.673729  	-0.038423 
1904.105387  	-0.038122 
1905.537045  	-0.039906 
1906.968704  	-0.038968 
1908.400362  	-0.039453 
1909.832020  	-0.039574 
1911.263678  	-0.038799 
1912.695336  	-0.040867 
1914.126995  	-0.040615 
1915.558653  	-0.040705 
1916.990311  	-0.042872 
1918.421969  	-0.041574 
1919.853627  	-0.042100 
1921.285285  	-0.042594 
1922.716944  	-0.040776 
1924.148602  	-0.042713 
1925.580260  	-0.042502 
1927.011918  	-0.041222 
1928.443576  	-0.043419 
1929.875235  	-0.043015 
1931.306893  	-0.043103 
1932.738551  	-0.043760 
1934.170209  	-0.042448 
1935.601867  	-0.044864 
1937.033525  	-0.044598 
1938.465184  	-0.041575 
1939.896842  	-0.042828 
1941.328500  	-0.042128 
1942.760158  	-0.042581 
1944.191816  	-0.045008 
1945.623475  	-0.043065 
1947.055133  	-0.043874 
1948.486791  	-0.043720 
1949.918449  	-0.040984 
1951.350107  	-0.042517 
1952.781766  	-0.041766 
1954.213424  	-0.041433 
1955.645082  	-0.043576 
1957.076740  	-0.041569 
1958.508398  	-0.043189 
1959.940056  	-0.044254 
1961.371715  	-0.041072 
1962.803373  	-0.043402 
1964.235031  	-0.042030 
1965.666689  	-0.039223 
1967.098347  	-0.042140 
1968.530006  	-0.041257 
1969.961664  	-0.042568 
1971.393322  	-0.043702 
1972.824980  	-0.040798 
1974.256638  	-0.043637 
1975.688297  	-0.041608 
1977.119955  	-0.038511 
1978.551613  	-0.043637 
1979.983271  	-0.042477 
1981.414929  	-0.041766 
1982.846587  	-0.043269 
1984.278246  	-0.041337 
1985.709904  	-0.043791 
1987.141562  	-0.043431 
1988.573220  	-0.040890 
1990.004878  	-0.043834 
1991.436537  	-0.042386 
1992.868195  	-0.041857 
1994.299853  	-0.044605 
1995.731511  	-0.042641 
1997.163169  	-0.043429 
1998.594827  	-0.043393 
2000.026486  	-0.041543 
2001.458144  	-0.044168 
2002.889802  	-0.041863 
2004.321460  	-0.040332 
2005.753118  	-0.043546 
2007.184777  	-0.040463 
2008.616435  	-0.040681 
2010.048093  	-0.043271 
2011.479751  	-0.042108 
2012.911409  	-0.044461 
2014.343068  	-0.042997 
2015.774726  	-0.040646 
2017.206384  	-0.041658 
2018.638042  	-0.038804 
2020.069700  	-0.040953 
2021.501358  	-0.042672 
2022.933017  	-0.039753 
2024.364675  	-0.043202 
2025.796333  	-0.040785 
2027.227991  	-0.036392 
2028.659649  	-0.041071 
2030.091308  	-0.040382 
2031.522966  	-0.039678 
2032.954624  	-0.041228 
2034.386282  	-0.038531 
2035.817940  	-0.041881 
2037.249599  	-0.042664 
2038.681257  	-0.039784 
2040.112915  	-0.042540 
2041.544573  	-0.040698 
2042.976231  	-0.039283 
2044.407889  	-0.041803 
2045.839548  	-0.039962 
2047.271206  	-0.040630 
2048.702864  	-0.041439 
2050.134522  	-0.040536 
2051.566180  	-0.042775 
2052.997839  	-0.041166 
2054.429497  	-0.039773 
2055.861155  	-0.041915 
2057.292813  	-0.041680 
2058.724471  	-0.043869 
2060.156129  	-0.045159 
2061.587788  	-0.042611 
2063.019446  	-0.044279 
2064.451104  	-0.045352 
2065.882762  	-0.044264 
2067.314420  	-0.044720 
2068.746079  	-0.043669 
2070.177737  	-0.044596 
2071.609395  	-0.044937 
2073.041053  	-0.042626 
2074.472711  	-0.044386 
2075.904370  	-0.044628 
2077.336028  	-0.042895 
2078.767686  	-0.045039 
2080.199344  	-0.045204 
2081.631002  	-0.044694 
2083.062660  	-0.045621 
2084.494319  	-0.044487 
2085.925977  	-0.044708 
2087.357635  	-0.044805 
2088.789293  	-0.043706 
2090.220951  	-0.044599 
2091.652610  	-0.044330 
2093.084268  	-0.044479 
2094.515926  	-0.045642 
2095.947584  	-0.044787 
2097.379242  	-0.046035 
2098.810901  	-0.046239 
2100.242559  	-0.043648 
2101.674217  	-0.044084 
2103.105875  	-0.044151 
2104.537533  	-0.044393 
2105.969191  	-0.046528 
2107.400850  	-0.045439 
2108.832508  	-0.044888 
2110.264166  	-0.045585 
2111.695824  	-0.044316 
2113.127482  	-0.044418 
2114.559141  	-0.044092 
2115.990799  	-0.043887 
2117.422457  	-0.045717 
2118.854115  	-0.045157 
2120.285773  	-0.044784 
2121.717431  	-0.045049 
2123.149090  	-0.043371 
2124.580748  	-0.044306 
2126.012406  	-0.044585 
2127.444064  	-0.042433 
2128.875722  	-0.043260 
2130.307381  	-0.043688 
2131.739039  	-0.043649 
2133.170697  	-0.044480 
2134.602355  	-0.043192 
2136.034013  	-0.043945 
2137.465672  	-0.043507 
2138.897330  	-0.040670 
2140.328988  	-0.042516 
2141.760646  	-0.042452 
2143.192304  	-0.040672 
2144.623962  	-0.042387 
2146.055621  	-0.042186 
2147.487279  	-0.043763 
2148.918937  	-0.044390 
2150.350595  	-0.039678 
2151.782253  	-0.039580 
2153.213912  	-0.040090 
2154.645570  	-0.039453 
2156.077228  	-0.042372 
2157.508886  	-0.040228 
2158.940544  	-0.038180 
2160.372202  	-0.038229 
2161.803861  	-0.036266 
2163.235519  	-0.040422 
2164.667177  	-0.041618 
2166.098835  	-0.039552 
2167.530493  	-0.042604 
2168.962152  	-0.042219 
2170.393810  	-0.041753 
2171.825468  	-0.043173 
2173.257126  	-0.041373 
2174.688784  	-0.042973 
2176.120443  	-0.042953 
2177.552101  	-0.039855 
2178.983759  	-0.042371 
2180.415417  	-0.042870 
2181.847075  	-0.042038 
2183.278733  	-0.043263 
2184.710392  	-0.040800 
2186.142050  	-0.041179 
2187.573708  	-0.042192 
2189.005366  	-0.039734 
2190.437024  	-0.041594 
2191.868683  	-0.042895 
2193.300341  	-0.041677 
2194.731999  	-0.042765 
2196.163657  	-0.042222 
2197.595315  	-0.041924 
2199.026974  	-0.042456 
2200.458632  	-0.042085 
2201.890290  	-0.044067 
2203.321948  	-0.044338 
2204.753606  	-0.043086 
2206.185264  	-0.043736 
2207.616923  	-0.042821 
2209.048581  	-0.043342 
2210.480239  	-0.044950 
2211.911897  	-0.044099 
2213.343555  	-0.044664 
2214.775214  	-0.044327 
2216.206872  	-0.042862 
2217.638530  	-0.043629 
2219.070188  	-0.043354 
2220.501846  	-0.043496 
2221.933504  	-0.044144 
2223.365163  	-0.043681 
2224.796821  	-0.045152 
2226.228479  	-0.044570 
2227.660137  	-0.043023 
2229.091795  	-0.045078 
2230.523454  	-0.044826 
2231.955112  	-0.043944 
2233.386770  	-0.045153 
2234.818428  	-0.044534 
2236.250086  	-0.045330 
2237.681745  	-0.046124 
2239.113403  	-0.044456 
2240.545061  	-0.045010 
2241.976719  	-0.045541 
2243.408377  	-0.044930 
2244.840035  	-0.045203 
2246.271694  	-0.044984 
2247.703352  	-0.045770 
2249.135010  	-0.045612 
2250.566668  	-0.044050 
2251.998326  	-0.045064 
2253.429985  	-0.044880 
2254.861643  	-0.043687 
2256.293301  	-0.044692 
2257.724959  	-0.044080 
2259.156617  	-0.043790 
2260.588276  	-0.044863 
2262.019934  	-0.044118 
2263.451592  	-0.044162 
2264.883250  	-0.044370 
2266.314908  	-0.043898 
2267.746566  	-0.044974 
2269.178225  	-0.045078 
2270.609883  	-0.044448 
2272.041541  	-0.044178 
2273.473199  	-0.043411 
2274.904857  	-0.044534 
2276.336516  	-0.045540 
2277.768174  	-0.044723 
2279.199832  	-0.045175 
2280.631490  	-0.045426 
2282.063148  	-0.044977 
2283.494806  	-0.045325 
2284.926465  	-0.045218 
2286.358123  	-0.045148 
2287.789781  	-0.044823 
2289.221439  	-0.044137 
2290.653097  	-0.044648 
2292.084756  	-0.044726 
2293.516414  	-0.044234 
2294.948072  	-0.044247 
2296.379730  	-0.043574 
2297.811388  	-0.043205 
2299.243047  	-0.043139 
2300.674705  	-0.042282 
2302.106363  	-0.041838 
2303.538021  	-0.041293 
2304.969679  	-0.040720 
2306.401337  	-0.040604 
2307.832996  	-0.039511 
2309.264654  	-0.038775 
2310.696312  	-0.038519 
2312.127970  	-0.037302 
2313.559628  	-0.037147 
2314.991287  	-0.037481 
2316.422945  	-0.036770 
2317.854603  	-0.035848 
2319.286261  	-0.033931 
2320.717919  	-0.032198 
2322.149577  	-0.031684 
2323.581236  	-0.030864 
2325.012894  	-0.030722 
2326.444552  	-0.030653 
2327.876210  	-0.029327 
2329.307868  	-0.028097 
2330.739527  	-0.026999 
2332.171185  	-0.026697 
2333.602843  	-0.027632 
2335.034501  	-0.027504 
2336.466159  	-0.026748 
2337.897818  	-0.026243 
2339.329476  	-0.025640 
2340.761134  	-0.025622 
2342.192792  	-0.025305 
2343.624450  	-0.024845 
2345.056108  	-0.025438 
2346.487767  	-0.027823 
2347.919425  	-0.032101 
2349.351083  	-0.033771 
2350.782741  	-0.030460 
2352.214399  	-0.026257 
2353.646058  	-0.024146 
2355.077716  	-0.021983 
2356.509374  	-0.020109 
2357.941032  	-0.018577 
2359.372690  	-0.017815 
2360.804349  	-0.018427 
2362.236007  	-0.018259 
2363.667665  	-0.018749 
2365.099323  	-0.020480 
2366.530981  	-0.021651 
2367.962639  	-0.023316 
2369.394298  	-0.025213 
2370.825956  	-0.027438 
2372.257614  	-0.030212 
2373.689272  	-0.031987 
2375.120930  	-0.033885 
2376.552589  	-0.036066 
2377.984247  	-0.037719 
2379.415905  	-0.040009 
2380.847563  	-0.042163 
2382.279221  	-0.043666 
2383.710879  	-0.045306 
2385.142538  	-0.046470 
2386.574196  	-0.047257 
2388.005854  	-0.047508 
2389.437512  	-0.047086 
2390.869170  	-0.047547 
2392.300829  	-0.048208 
2393.732487  	-0.047973 
2395.164145  	-0.047942 
2396.595803  	-0.048143 
2398.027461  	-0.048246 
2399.459120  	-0.048252 
2400.890778  	-0.048263 
2402.322436  	-0.048508 
2403.754094  	-0.048081 
2405.185752  	-0.047711 
2406.617410  	-0.048249 
2408.049069  	-0.048172 
2409.480727  	-0.048122 
2410.912385  	-0.048444 
2412.344043  	-0.048068 
2413.775701  	-0.048244 
2415.207360  	-0.048370 
2416.639018  	-0.047814 
2418.070676  	-0.048318 
2419.502334  	-0.048705 
2420.933992  	-0.048304 
2422.365651  	-0.048180 
2423.797309  	-0.047790 
2425.228967  	-0.047825 
2426.660625  	-0.048292 
2428.092283  	-0.048226 
2429.523941  	-0.048211 
2430.955600  	-0.047795 
2432.387258  	-0.047653 
2433.818916  	-0.048565 
2435.250574  	-0.048588 
2436.682232  	-0.048163 
2438.113891  	-0.048246 
2439.545549  	-0.048178 
2440.977207  	-0.048497 
2442.408865  	-0.048475 
2443.840523  	-0.048098 
2445.272181  	-0.048405 
2446.703840  	-0.048111 
2448.135498  	-0.047857 
2449.567156  	-0.048491 
2450.998814  	-0.048535 
2452.430472  	-0.048628 
2453.862131  	-0.048941 
2455.293789  	-0.048762 
2456.725447  	-0.048773 
2458.157105  	-0.048551 
2459.588763  	-0.048326 
2461.020422  	-0.048489 
2462.452080  	-0.048250 
2463.883738  	-0.048383 
2465.315396  	-0.048583 
2466.747054  	-0.048135 
2468.178712  	-0.048222 
2469.610371  	-0.048281 
2471.042029  	-0.047903 
2472.473687  	-0.047877 
2473.905345  	-0.047862 
2475.337003  	-0.047943 
2476.768662  	-0.047747 
2478.200320  	-0.047368 
2479.631978  	-0.047760 
2481.063636  	-0.047753 
2482.495294  	-0.047505 
2483.926953  	-0.047825 
2485.358611  	-0.047617 
2486.790269  	-0.047859 
2488.221927  	-0.048513 
2489.653585  	-0.048204 
2491.085243  	-0.048210 
2492.516902  	-0.048068 
2493.948560  	-0.047442 
2495.380218  	-0.047773 
2496.811876  	-0.047780 
2498.243534  	-0.047610 
2499.675193  	-0.048449 
2501.106851  	-0.048801 
2502.538509  	-0.048717 
2503.970167  	-0.048653 
2505.401825  	-0.048192 
2506.833483  	-0.048056 
2508.265142  	-0.048136 
2509.696800  	-0.048229 
2511.128458  	-0.048294 
2512.560116  	-0.048182 
2513.991774  	-0.048629 
2515.423433  	-0.048842 
2516.855091  	-0.048579 
2518.286749  	-0.048897 
2519.718407  	-0.048772 
2521.150065  	-0.048613 
2522.581724  	-0.049162 
2524.013382  	-0.048926 
2525.445040  	-0.048519 
2526.876698  	-0.048544 
2528.308356  	-0.048564 
2529.740014  	-0.048935 
2531.171673  	-0.048801 
2532.603331  	-0.048783 
2534.034989  	-0.049375 
2535.466647  	-0.048974 
2536.898305  	-0.048939 
2538.329964  	-0.049413 
2539.761622  	-0.048776 
2541.193280  	-0.048800 
2542.624938  	-0.049062 
2544.056596  	-0.048341 
2545.488254  	-0.048245 
2546.919913  	-0.048436 
2548.351571  	-0.048592 
2549.783229  	-0.048662 
2551.214887  	-0.047962 
2552.646545  	-0.048186 
2554.078204  	-0.048970 
2555.509862  	-0.048711 
2556.941520  	-0.048403 
2558.373178  	-0.047890 
2559.804836  	-0.047614 
2561.236495  	-0.048200 
2562.668153  	-0.048205 
2564.099811  	-0.048256 
2565.531469  	-0.048371 
2566.963127  	-0.047688 
2568.394785  	-0.047759 
2569.826444  	-0.048032 
2571.258102  	-0.047849 
2572.689760  	-0.048319 
2574.121418  	-0.048315 
2575.553076  	-0.047896 
2576.984735  	-0.047970 
2578.416393  	-0.047868 
2579.848051  	-0.048096 
2581.279709  	-0.048287 
2582.711367  	-0.047966 
2584.143026  	-0.048295 
2585.574684  	-0.048610 
2587.006342  	-0.048333 
2588.438000  	-0.047981 
2589.869658  	-0.047538 
2591.301316  	-0.047612 
2592.732975  	-0.047756 
2594.164633  	-0.047497 
2595.596291  	-0.047711 
2597.027949  	-0.047840 
2598.459607  	-0.047785 
2599.891266  	-0.048153 
2601.322924  	-0.048289 
2602.754582  	-0.048313 
2604.186240  	-0.048208 
2605.617898  	-0.047826 
2607.049556  	-0.047847 
2608.481215  	-0.047732 
2609.912873  	-0.047616 
2611.344531  	-0.048103 
2612.776189  	-0.048134 
2614.207847  	-0.047900 
2615.639506  	-0.048035 
2617.071164  	-0.048045 
2618.502822  	-0.048011 
2619.934480  	-0.047792 
2621.366138  	-0.047614 
2622.797797  	-0.047977 
2624.229455  	-0.048162 
2625.661113  	-0.048120 
2627.092771  	-0.048121 
2628.524429  	-0.047922 
2629.956087  	-0.047792 
2631.387746  	-0.047605 
2632.819404  	-0.047541 
2634.251062  	-0.047824 
2635.682720  	-0.047699 
2637.114378  	-0.047489 
2638.546037  	-0.047566 
2639.977695  	-0.047454 
2641.409353  	-0.047538 
2642.841011  	-0.047675 
2644.272669  	-0.047455 
2645.704328  	-0.047255 
2647.135986  	-0.047125 
2648.567644  	-0.047303 
2649.999302  	-0.047566 
2651.430960  	-0.047384 
2652.862618  	-0.047343 
2654.294277  	-0.047367 
2655.725935  	-0.047196 
2657.157593  	-0.047222 
2658.589251  	-0.046981 
2660.020909  	-0.046634 
2661.452568  	-0.046520 
2662.884226  	-0.046157 
2664.315884  	-0.046134 
2665.747542  	-0.046381 
2667.179200  	-0.046063 
2668.610858  	-0.045845 
2670.042517  	-0.045870 
2671.474175  	-0.045739 
2672.905833  	-0.045612 
2674.337491  	-0.045296 
2675.769149  	-0.045171 
2677.200808  	-0.045344 
2678.632466  	-0.045224 
2680.064124  	-0.045099 
2681.495782  	-0.044857 
2682.927440  	-0.044427 
2684.359099  	-0.044411 
2685.790757  	-0.044321 
2687.222415  	-0.043980 
2688.654073  	-0.043811 
2690.085731  	-0.043544 
2691.517389  	-0.043271 
2692.949048  	-0.043050 
2694.380706  	-0.042853 
2695.812364  	-0.042839 
2697.244022  	-0.042605 
2698.675680  	-0.042351 
2700.107339  	-0.042272 
2701.538997  	-0.041880 
2702.970655  	-0.041605 
2704.402313  	-0.041492 
2705.833971  	-0.041189 
2707.265630  	-0.041045 
2708.697288  	-0.040812 
2710.128946  	-0.040598 
2711.560604  	-0.040594 
2712.992262  	-0.040211 
2714.423920  	-0.040003 
2715.855579  	-0.040052 
2717.287237  	-0.039674 
2718.718895  	-0.039489 
2720.150553  	-0.039352 
2721.582211  	-0.038951 
2723.013870  	-0.038877 
2724.445528  	-0.038646 
2725.877186  	-0.038214 
2727.308844  	-0.037967 
2728.740502  	-0.037492 
2730.172160  	-0.037166 
2731.603819  	-0.037035 
2733.035477  	-0.036684 
2734.467135  	-0.036429 
2735.898793  	-0.036063 
2737.330451  	-0.035796 
2738.762110  	-0.036002 
2740.193768  	-0.035909 
2741.625426  	-0.035563 
2743.057084  	-0.035400 
2744.488742  	-0.035345 
2745.920401  	-0.035417 
2747.352059  	-0.035234 
2748.783717  	-0.035125 
2750.215375  	-0.035353 
2751.647033  	-0.035121 
2753.078691  	-0.035000 
2754.510350  	-0.035295 
2755.942008  	-0.035064 
2757.373666  	-0.034730 
2758.805324  	-0.034563 
2760.236982  	-0.034340 
2761.668641  	-0.034372 
2763.100299  	-0.034198 
2764.531957  	-0.033897 
2765.963615  	-0.033963 
2767.395273  	-0.033807 
2768.826931  	-0.033356 
2770.258590  	-0.032887 
2771.690248  	-0.032485 
2773.121906  	-0.032267 
2774.553564  	-0.031782 
2775.985222  	-0.031188 
2777.416881  	-0.030735 
2778.848539  	-0.029907 
2780.280197  	-0.029011 
2781.711855  	-0.028134 
2783.143513  	-0.026909 
2784.575172  	-0.025747 
2786.006830  	-0.024506 
2787.438488  	-0.023036 
2788.870146  	-0.021703 
2790.301804  	-0.020308 
2791.733462  	-0.018901 
2793.165121  	-0.017605 
2794.596779  	-0.016530 
2796.028437  	-0.016067 
2797.460095  	-0.015883 
2798.891753  	-0.016023 
2800.323412  	-0.016755 
2801.755070  	-0.017429 
2803.186728  	-0.018251 
2804.618386  	-0.019382 
2806.050044  	-0.020278 
2807.481703  	-0.021331 
2808.913361  	-0.022313 
2810.345019  	-0.022824 
2811.776677  	-0.023415 
2813.208335  	-0.023735 
2814.639993  	-0.023617 
2816.071652  	-0.023271 
2817.503310  	-0.022329 
2818.934968  	-0.021320 
2820.366626  	-0.020241 
2821.798284  	-0.018402 
2823.229943  	-0.016370 
2824.661601  	-0.014291 
2826.093259  	-0.011826 
2827.524917  	-0.008946 
2828.956575  	-0.005284 
2830.388233  	-0.001337 
2831.819892  	0.002400 
2833.251550  	0.006550 
2834.683208  	0.011340 
2836.114866  	0.016701 
2837.546524  	0.022480 
2838.978183  	0.028401 
2840.409841  	0.034753 
2841.841499  	0.041713 
2843.273157  	0.049381 
2844.704815  	0.058376 
2846.136474  	0.069369 
2847.568132  	0.081698 
2848.999790  	0.091591 
2850.431448  	0.095163 
2851.863106  	0.093202 
2853.294764  	0.089123 
2854.726423  	0.085240 
2856.158081  	0.082683 
2857.589739  	0.080935 
2859.021397  	0.078973 
2860.453055  	0.076820 
2861.884714  	0.074461 
2863.316372  	0.071891 
2864.748030  	0.069232 
2866.179688  	0.066321 
2867.611346  	0.063435 
2869.043005  	0.060623 
2870.474663  	0.057494 
2871.906321  	0.053954 
2873.337979  	0.049768 
2874.769637  	0.044981 
2876.201295  	0.039960 
2877.632954  	0.034886 
2879.064612  	0.030124 
2880.496270  	0.025759 
2881.927928  	0.022082 
2883.359586  	0.019589 
2884.791245  	0.017782 
2886.222903  	0.016498 
2887.654561  	0.015992 
2889.086219  	0.015993 
2890.517877  	0.016574 
2891.949535  	0.017469 
2893.381194  	0.018330 
2894.812852  	0.019554 
2896.244510  	0.020832 
2897.676168  	0.021897 
2899.107826  	0.023239 
2900.539485  	0.024730 
2901.971143  	0.026242 
2903.402801  	0.028014 
2904.834459  	0.030149 
2906.266117  	0.032764 
2907.697776  	0.035701 
2909.129434  	0.039135 
2910.561092  	0.043676 
2911.992750  	0.049607 
2913.424408  	0.057244 
2914.856066  	0.065609 
2916.287725  	0.071766 
2917.719383  	0.074039 
2919.151041  	0.073032 
2920.582699  	0.069466 
2922.014357  	0.064463 
2923.446016  	0.059736 
2924.877674  	0.056157 
2926.309332  	0.053703 
2927.740990  	0.052309 
2929.172648  	0.051980 
2930.604306  	0.052393 
2932.035965  	0.053121 
2933.467623  	0.053851 
2934.899281  	0.054629 
2936.330939  	0.055599 
2937.762597  	0.056098 
2939.194256  	0.055786 
2940.625914  	0.055308 
2942.057572  	0.054599 
2943.489230  	0.053325 
2944.920888  	0.051650 
2946.352547  	0.049485 
2947.784205  	0.047245 
2949.215863  	0.045322 
2950.647521  	0.043233 
2952.079179  	0.040981 
2953.510837  	0.038558 
2954.942496  	0.035690 
2956.374154  	0.032750 
2957.805812  	0.029621 
2959.237470  	0.025997 
2960.669128  	0.022168 
2962.100787  	0.018214 
2963.532445  	0.014232 
2964.964103  	0.010053 
2966.395761  	0.005578 
2967.827419  	0.001407 
2969.259078  	-0.002609 
2970.690736  	-0.006632 
2972.122394  	-0.010201 
2973.554052  	-0.013743 
2974.985710  	-0.017356 
2976.417368  	-0.020458 
2977.849027  	-0.023043 
2979.280685  	-0.025245 
2980.712343  	-0.027348 
2982.144001  	-0.029429 
2983.575659  	-0.031234 
2985.007318  	-0.032818 
2986.438976  	-0.034047 
2987.870634  	-0.035076 
2989.302292  	-0.036149 
2990.733950  	-0.036987 
2992.165608  	-0.037772 
2993.597267  	-0.038319 
2995.028925  	-0.038439 
2996.460583  	-0.038860 
2997.892241  	-0.039146 
2999.323899  	-0.039045 
3000.755558  	-0.039370 
3002.187216  	-0.039590 
3003.618874  	-0.039556 
3005.050532  	-0.039698 
3006.482190  	-0.039477 
3007.913849  	-0.039271 
3009.345507  	-0.039372 
3010.777165  	-0.039237 
3012.208823  	-0.039294 
3013.640481  	-0.039744 
3015.072139  	-0.040152 
3016.503798  	-0.040162 
3017.935456  	-0.039760 
3019.367114  	-0.039763 
3020.798772  	-0.039928 
3022.230430  	-0.039535 
3023.662089  	-0.039133 
3025.093747  	-0.038559 
3026.525405  	-0.037685 
3027.957063  	-0.037018 
3029.388721  	-0.036085 
3030.820380  	-0.035115 
3032.252038  	-0.034520 
3033.683696  	-0.033886 
3035.115354  	-0.033705 
3036.547012  	-0.033758 
3037.978670  	-0.033276 
3039.410329  	-0.032819 
3040.841987  	-0.032540 
3042.273645  	-0.032387 
3043.705303  	-0.032542 
3045.136961  	-0.032655 
3046.568620  	-0.032837 
3048.000278  	-0.033076 
3049.431936  	-0.033351 
3050.863594  	-0.034048 
3052.295252  	-0.034438 
3053.726910  	-0.034398 
3055.158569  	-0.034753 
3056.590227  	-0.035009 
3058.021885  	-0.034915 
3059.453543  	-0.034851 
3060.885201  	-0.034836 
3062.316860  	-0.035157 
3063.748518  	-0.035614 
3065.180176  	-0.036077 
3066.611834  	-0.036745 
3068.043492  	-0.037191 
3069.475151  	-0.037710 
3070.906809  	-0.038509 
3072.338467  	-0.038939 
3073.770125  	-0.039345 
3075.201783  	-0.039890 
3076.633441  	-0.040286 
3078.065100  	-0.041006 
3079.496758  	-0.041718 
3080.928416  	-0.041727 
3082.360074  	-0.041495 
3083.791732  	-0.041721 
3085.223391  	-0.042210 
3086.655049  	-0.042280 
3088.086707  	-0.042389 
3089.518365  	-0.042842 
3090.950023  	-0.042734 
3092.381682  	-0.042626 
3093.813340  	-0.043068 
3095.244998  	-0.043035 
3096.676656  	-0.042776 
3098.108314  	-0.042654 
3099.539972  	-0.042230 
3100.971631  	-0.041975 
3102.403289  	-0.041855 
3103.834947  	-0.041512 
3105.266605  	-0.041244 
3106.698263  	-0.040975 
3108.129922  	-0.040590 
3109.561580  	-0.040021 
3110.993238  	-0.039440 
3112.424896  	-0.039093 
3113.856554  	-0.038487 
3115.288212  	-0.037962 
3116.719871  	-0.037898 
3118.151529  	-0.037588 
3119.583187  	-0.037364 
3121.014845  	-0.037269 
3122.446503  	-0.036842 
3123.878162  	-0.036842 
3125.309820  	-0.037037 
3126.741478  	-0.037141 
3128.173136  	-0.037752 
3129.604794  	-0.038181 
3131.036453  	-0.038529 
3132.468111  	-0.039493 
3133.899769  	-0.040486 
3135.331427  	-0.041486 
3136.763085  	-0.042234 
3138.194743  	-0.042471 
3139.626402  	-0.043104 
3141.058060  	-0.043781 
3142.489718  	-0.044071 
3143.921376  	-0.044549 
3145.353034  	-0.045023 
3146.784693  	-0.045350 
3148.216351  	-0.045364 
3149.648009  	-0.045202 
3151.079667  	-0.045486 
3152.511325  	-0.045478 
3153.942983  	-0.045203 
3155.374642  	-0.045397 
3156.806300  	-0.045254 
3158.237958  	-0.045090 
3159.669616  	-0.045350 
3161.101274  	-0.045209 
3162.532933  	-0.045061 
3163.964591  	-0.044807 
3165.396249  	-0.044195 
3166.827907  	-0.044173 
3168.259565  	-0.044077 
3169.691224  	-0.043379 
3171.122882  	-0.042857 
3172.554540  	-0.042308 
3173.986198  	-0.041807 
3175.417856  	-0.041477 
3176.849514  	-0.040955 
3178.281173  	-0.040475 
3179.712831  	-0.039666 
3181.144489  	-0.038576 
3182.576147  	-0.038020 
3184.007805  	-0.037622 
3185.439464  	-0.037026 
3186.871122  	-0.036155 
3188.302780  	-0.035075 
3189.734438  	-0.034699 
3191.166096  	-0.034871 
3192.597755  	-0.034971 
3194.029413  	-0.035281 
3195.461071  	-0.035651 
3196.892729  	-0.036122 
3198.324387  	-0.036670 
3199.756045  	-0.036773 
3201.187704  	-0.036855 
3202.619362  	-0.037147 
3204.051020  	-0.037542 
3205.482678  	-0.038028 
3206.914336  	-0.037897 
3208.345995  	-0.037570 
3209.777653  	-0.037756 
3211.209311  	-0.037647 
3212.640969  	-0.037272 
3214.072627  	-0.037110 
3215.504285  	-0.036928 
3216.935944  	-0.036687 
3218.367602  	-0.036070 
3219.799260  	-0.035293 
3221.230918  	-0.034926 
3222.662576  	-0.034548 
3224.094235  	-0.034077 
3225.525893  	-0.033604 
3226.957551  	-0.032967 
3228.389209  	-0.032378 
3229.820867  	-0.031606 
3231.252526  	-0.030760 
3232.684184  	-0.030173 
3234.115842  	-0.029397 
3235.547500  	-0.028721 
3236.979158  	-0.028254 
3238.410816  	-0.027378 
3239.842475  	-0.026568 
3241.274133  	-0.025951 
3242.705791  	-0.025089 
3244.137449  	-0.024292 
3245.569107  	-0.023463 
3247.000766  	-0.022531 
3248.432424  	-0.021832 
3249.864082  	-0.021277 
3251.295740  	-0.020719 
3252.727398  	-0.019826 
3254.159057  	-0.018716 
3255.590715  	-0.017885 
3257.022373  	-0.016867 
3258.454031  	-0.015671 
3259.885689  	-0.014867 
3261.317347  	-0.014039 
3262.749006  	-0.012926 
3264.180664  	-0.011741 
3265.612322  	-0.010634 
3267.043980  	-0.009750 
3268.475638  	-0.008781 
3269.907297  	-0.007574 
3271.338955  	-0.006231 
3272.770613  	-0.004819 
3274.202271  	-0.003705 
3275.633929  	-0.002563 
3277.065587  	-0.000934 
3278.497246  	0.000772 
3279.928904  	0.002418 
3281.360562  	0.003911 
3282.792220  	0.005428 
3284.223878  	0.007596 
3285.655537  	0.009879 
3287.087195  	0.011901 
3288.518853  	0.014110 
3289.950511  	0.016221 
3291.382169  	0.018366 
3292.813828  	0.020862 
3294.245486  	0.023280 
3295.677144  	0.025795 
3297.108802  	0.028293 
3298.540460  	0.030149 
3299.972118  	0.031753 
3301.403777  	0.033298 
3302.835435  	0.034144 
3304.267093  	0.034070 
3305.698751  	0.033653 
3307.130409  	0.033288 
3308.562068  	0.032477 
3309.993726  	0.031475 
3311.425384  	0.031148 
3312.857042  	0.031147 
3314.288700  	0.031168 
3315.720359  	0.031094 
3317.152017  	0.030682 
3318.583675  	0.030615 
3320.015333  	0.030949 
3321.446991  	0.030994 
3322.878649  	0.030739 
3324.310308  	0.030177 
3325.741966  	0.029706 
3327.173624  	0.029585 
3328.605282  	0.029048 
3330.036940  	0.028086 
3331.468599  	0.027134 
3332.900257  	0.026166 
3334.331915  	0.025033 
3335.763573  	0.023401 
3337.195231  	0.021738 
3338.626889  	0.020210 
3340.058548  	0.018017 
3341.490206  	0.015692 
3342.921864  	0.013645 
3344.353522  	0.011343 
3345.785180  	0.009057 
3347.216839  	0.006552 
3348.648497  	0.003680 
3350.080155  	0.001182 
3351.511813  	-0.001172 
3352.943471  	-0.003667 
3354.375130  	-0.006178 
3355.806788  	-0.008628 
3357.238446  	-0.010643 
3358.670104  	-0.012712 
3360.101762  	-0.015025 
3361.533420  	-0.016888 
3362.965079  	-0.018613 
3364.396737  	-0.020471 
3365.828395  	-0.022384 
3367.260053  	-0.024229 
3368.691711  	-0.025397 
3370.123370  	-0.026559 
3371.555028  	-0.028164 
3372.986686  	-0.029243 
3374.418344  	-0.030047 
3375.850002  	-0.030882 
3377.281660  	-0.031560 
3378.713319  	-0.032500 
3380.144977  	-0.033244 
3381.576635  	-0.033663 
3383.008293  	-0.034271 
3384.439951  	-0.034883 
3385.871610  	-0.035733 
3387.303268  	-0.036419 
3388.734926  	-0.036545 
3390.166584  	-0.037029 
3391.598242  	-0.037425 
3393.029901  	-0.037467 
3394.461559  	-0.037918 
3395.893217  	-0.038111 
3397.324875  	-0.038359 
3398.756533  	-0.039184 
3400.188191  	-0.039554 
3401.619850  	-0.039919 
3403.051508  	-0.040446 
3404.483166  	-0.040397 
3405.914824  	-0.040595 
3407.346482  	-0.041102 
3408.778141  	-0.041343 
3410.209799  	-0.041667 
3411.641457  	-0.042117 
3413.073115  	-0.042719 
3414.504773  	-0.043153 
3415.936432  	-0.043214 
3417.368090  	-0.043538 
3418.799748  	-0.043722 
3420.231406  	-0.043595 
3421.663064  	-0.043811 
3423.094722  	-0.043871 
3424.526381  	-0.043768 
3425.958039  	-0.044018 
3427.389697  	-0.044356 
3428.821355  	-0.044605 
3430.253013  	-0.044599 
3431.684672  	-0.044753 
3433.116330  	-0.045295 
3434.547988  	-0.045309 
3435.979646  	-0.045130 
3437.411304  	-0.045347 
3438.842962  	-0.045454 
3440.274621  	-0.045562 
3441.706279  	-0.045478 
3443.137937  	-0.045191 
3444.569595  	-0.045437 
3446.001253  	-0.045822 
3447.432912  	-0.046219 
3448.864570  	-0.046652 
3450.296228  	-0.046694 
3451.727886  	-0.046951 
3453.159544  	-0.047174 
3454.591203  	-0.047004 
3456.022861  	-0.047260 
3457.454519  	-0.047295 
3458.886177  	-0.046908 
3460.317835  	-0.047187 
3461.749493  	-0.047638 
3463.181152  	-0.047863 
3464.612810  	-0.047960 
3466.044468  	-0.047760 
3467.476126  	-0.047820 
3468.907784  	-0.047991 
3470.339443  	-0.047975 
3471.771101  	-0.047994 
3473.202759  	-0.047589 
3474.634417  	-0.047345 
3476.066075  	-0.047885 
3477.497734  	-0.048147 
3478.929392  	-0.047882 
3480.361050  	-0.047509 
3481.792708  	-0.047278 
3483.224366  	-0.047345 
3484.656024  	-0.047295 
3486.087683  	-0.047413 
3487.519341  	-0.047804 
3488.950999  	-0.047893 
3490.382657  	-0.048044 
3491.814315  	-0.048096 
3493.245974  	-0.047965 
3494.677632  	-0.048288 
3496.109290  	-0.048245 
3497.540948  	-0.047838 
3498.972606  	-0.047995 
3500.404264  	-0.047982 
3501.835923  	-0.047838 
3503.267581  	-0.047977 
3504.699239  	-0.047865 
3506.130897  	-0.047936 
3507.562555  	-0.048159 
3508.994214  	-0.048116 
3510.425872  	-0.048133 
3511.857530  	-0.048109 
3513.289188  	-0.048208 
3514.720846  	-0.048511 
3516.152505  	-0.048560 
3517.584163  	-0.048678 
3519.015821  	-0.048727 
3520.447479  	-0.048308 
3521.879137  	-0.048039 
3523.310795  	-0.048205 
3524.742454  	-0.048523 
3526.174112  	-0.048417 
3527.605770  	-0.048078 
3529.037428  	-0.048469 
3530.469086  	-0.048952 
3531.900745  	-0.049101 
3533.332403  	-0.049468 
3534.764061  	-0.049471 
3536.195719  	-0.049372 
3537.627377  	-0.049605 
3539.059035  	-0.049371 
3540.490694  	-0.049402 
3541.922352  	-0.049873 
3543.354010  	-0.049554 
3544.785668  	-0.049154 
3546.217326  	-0.049598 
3547.648985  	-0.050136 
3549.080643  	-0.050175 
3550.512301  	-0.049762 
3551.943959  	-0.049514 
3553.375617  	-0.049951 
3554.807276  	-0.050579 
3556.238934  	-0.050819 
3557.670592  	-0.050657 
3559.102250  	-0.050783 
3560.533908  	-0.051097 
3561.965566  	-0.050960 
3563.397225  	-0.051014 
3564.828883  	-0.050823 
3566.260541  	-0.049920 
3567.692199  	-0.050361 
3569.123857  	-0.051631 
3570.555516  	-0.051780 
3571.987174  	-0.051742 
3573.418832  	-0.051465 
3574.850490  	-0.051122 
3576.282148  	-0.051222 
3577.713807  	-0.051625 
3579.145465  	-0.052408 
3580.577123  	-0.052555 
3582.008781  	-0.051890 
3583.440439  	-0.051877 
3584.872097  	-0.051792 
3586.303756  	-0.051285 
3587.735414  	-0.051803 
3589.167072  	-0.052350 
3590.598730  	-0.052109 
3592.030388  	-0.052050 
3593.462047  	-0.051834 
3594.893705  	-0.051514 
3596.325363  	-0.051618 
3597.757021  	-0.051890 
3599.188679  	-0.052044 
3600.620337  	-0.052416 
3602.051996  	-0.053101 
3603.483654  	-0.053175 
3604.915312  	-0.052969 
3606.346970  	-0.052931 
3607.778628  	-0.052277 
3609.210287  	-0.052443 
3610.641945  	-0.053613 
3612.073603  	-0.053039 
3613.505261  	-0.052469 
3614.936919  	-0.053347 
3616.368578  	-0.052996 
3617.800236  	-0.052099 
3619.231894  	-0.052428 
3620.663552  	-0.053513 
3622.095210  	-0.053906 
3623.526868  	-0.053436 
3624.958527  	-0.053240 
3626.390185  	-0.052987 
3627.821843  	-0.051476 
3629.253501  	-0.051276 
3630.685159  	-0.053437 
3632.116818  	-0.053071 
3633.548476  	-0.052911 
3634.980134  	-0.053836 
3636.411792  	-0.054180 
3637.843450  	-0.054414 
3639.275109  	-0.054723 
3640.706767  	-0.054754 
3642.138425  	-0.054903 
3643.570083  	-0.055111 
3645.001741  	-0.054926 
3646.433399  	-0.053986 
3647.865058  	-0.052969 
3649.296716  	-0.052927 
3650.728374  	-0.053438 
3652.160032  	-0.055446 
3653.591690  	-0.056038 
3655.023349  	-0.054833 
3656.455007  	-0.054806 
3657.886665  	-0.056050 
3659.318323  	-0.055740 
3660.749981  	-0.055768 
3662.181639  	-0.056370 
3663.613298  	-0.056433 
3665.044956  	-0.056384 
3666.476614  	-0.056131 
3667.908272  	-0.055575 
3669.339930  	-0.054895 
3670.771589  	-0.054832 
3672.203247  	-0.055504 
3673.634905  	-0.054755 
3675.066563  	-0.053764 
3676.498221  	-0.055982 
3677.929880  	-0.056868 
3679.361538  	-0.056706 
3680.793196  	-0.057017 
3682.224854  	-0.056596 
3683.656512  	-0.056661 
3685.088170  	-0.057024 
3686.519829  	-0.056036 
3687.951487  	-0.055370 
3689.383145  	-0.056269 
3690.814803  	-0.056554 
3692.246461  	-0.056756 
3693.678120  	-0.057109 
3695.109778  	-0.056835 
3696.541436  	-0.056507 
3697.973094  	-0.056514 
3699.404752  	-0.056371 
3700.836411  	-0.056064 
3702.268069  	-0.056474 
3703.699727  	-0.057003 
3705.131385  	-0.056544 
3706.563043  	-0.056030 
3707.994701  	-0.055979 
3709.426360  	-0.056043 
3710.858018  	-0.055991 
3712.289676  	-0.055882 
3713.721334  	-0.056923 
3715.152992  	-0.058007 
3716.584651  	-0.057668 
3718.016309  	-0.057019 
3719.447967  	-0.056622 
3720.879625  	-0.055751 
3722.311283  	-0.055478 
3723.742941  	-0.056224 
3725.174600  	-0.056198 
3726.606258  	-0.055692 
3728.037916  	-0.055855 
3729.469574  	-0.056045 
3730.901232  	-0.055913 
3732.332891  	-0.056015 
3733.764549  	-0.055405 
3735.196207  	-0.053730 
3736.627865  	-0.054973 
3738.059523  	-0.057552 
3739.491182  	-0.057581 
3740.922840  	-0.057636 
3742.354498  	-0.057137 
3743.786156  	-0.055231 
3745.217814  	-0.056329 
3746.649472  	-0.057979 
3748.081131  	-0.056569 
3749.512789  	-0.056105 
3750.944447  	-0.056552 
3752.376105  	-0.056722 
3753.807763  	-0.058075 
3755.239422  	-0.058062 
3756.671080  	-0.057552 
3758.102738  	-0.057798 
3759.534396  	-0.057733 
3760.966054  	-0.058230 
3762.397712  	-0.058678 
3763.829371  	-0.057754 
3765.261029  	-0.057316 
3766.692687  	-0.057905 
3768.124345  	-0.057591 
3769.556003  	-0.057126 
3770.987662  	-0.057723 
3772.419320  	-0.058373 
3773.850978  	-0.058248 
3775.282636  	-0.058078 
3776.714294  	-0.058276 
3778.145953  	-0.057878 
3779.577611  	-0.057303 
3781.009269  	-0.057729 
3782.440927  	-0.057691 
3783.872585  	-0.057197 
3785.304243  	-0.057400 
3786.735902  	-0.057896 
3788.167560  	-0.058116 
3789.599218  	-0.057943 
3791.030876  	-0.057667 
3792.462534  	-0.057948 
3793.894193  	-0.058138 
3795.325851  	-0.057694 
3796.757509  	-0.057198 
3798.189167  	-0.057006 
3799.620825  	-0.056589 
3801.052484  	-0.055950 
3802.484142  	-0.056977 
3803.915800  	-0.058032 
3805.347458  	-0.057085 
3806.779116  	-0.056606 
3808.210774  	-0.058119 
3809.642433  	-0.058069 
3811.074091  	-0.057417 
3812.505749  	-0.057553 
3813.937407  	-0.057189 
3815.369065  	-0.056621 
3816.800724  	-0.057465 
3818.232382  	-0.057400 
3819.664040  	-0.056017 
3821.095698  	-0.055778 
3822.527356  	-0.057813 
3823.959014  	-0.057790 
3825.390673  	-0.057105 
3826.822331  	-0.057464 
3828.253989  	-0.057638 
3829.685647  	-0.056956 
3831.117305  	-0.056567 
3832.548964  	-0.056531 
3833.980622  	-0.056544 
3835.412280  	-0.056568 
3836.843938  	-0.056297 
3838.275596  	-0.055926 
3839.707255  	-0.056003 
3841.138913  	-0.056528 
3842.570571  	-0.056983 
3844.002229  	-0.057163 
3845.433887  	-0.057495 
3846.865545  	-0.057613 
3848.297204  	-0.057380 
3849.728862  	-0.057309 
3851.160520  	-0.056487 
3852.592178  	-0.054816 
3854.023836  	-0.056077 
3855.455495  	-0.058075 
3856.887153  	-0.057537 
3858.318811  	-0.057614 
3859.750469  	-0.057506 
3861.182127  	-0.056768 
3862.613786  	-0.056267 
3864.045444  	-0.055518 
3865.477102  	-0.055681 
3866.908760  	-0.057175 
3868.340418  	-0.056765 
3869.772076  	-0.055919 
3871.203735  	-0.057554 
3872.635393  	-0.057696 
3874.067051  	-0.056955 
3875.498709  	-0.057660 
3876.930367  	-0.057862 
3878.362026  	-0.057068 
3879.793684  	-0.056457 
3881.225342  	-0.056536 
3882.657000  	-0.057014 
3884.088658  	-0.056556 
3885.520316  	-0.055477 
3886.951975  	-0.056579 
3888.383633  	-0.057718 
3889.815291  	-0.057080 
3891.246949  	-0.056845 
3892.678607  	-0.057668 
3894.110266  	-0.057737 
3895.541924  	-0.057560 
3896.973582  	-0.057139 
3898.405240  	-0.056376 
3899.836898  	-0.056251 
3901.268557  	-0.056511 
3902.700215  	-0.056465 
3904.131873  	-0.056660 
3905.563531  	-0.057136 
3906.995189  	-0.057665 
3908.426847  	-0.057944 
3909.858506  	-0.057697 
3911.290164  	-0.057571 
3912.721822  	-0.057986 
3914.153480  	-0.058021 
3915.585138  	-0.057140 
3917.016797  	-0.056206 
3918.448455  	-0.056273 
3919.880113  	-0.056645 
3921.311771  	-0.056814 
3922.743429  	-0.056797 
3924.175088  	-0.056561 
3925.606746  	-0.056786 
3927.038404  	-0.057229 
3928.470062  	-0.057056 
3929.901720  	-0.056810 
3931.333378  	-0.056677 
3932.765037  	-0.056626 
3934.196695  	-0.057057 
3935.628353  	-0.057178 
3937.060011  	-0.057032 
3938.491669  	-0.057266 
3939.923328  	-0.057176 
3941.354986  	-0.056713 
3942.786644  	-0.056493 
3944.218302  	-0.056471 
3945.649960  	-0.056781 
3947.081618  	-0.057134 
3948.513277  	-0.057077 
3949.944935  	-0.056970 
3951.376593  	-0.057005 
3952.808251  	-0.057076 
3954.239909  	-0.057030 
3955.671568  	-0.056818 
3957.103226  	-0.056968 
3958.534884  	-0.057250 
3959.966542  	-0.057120 
3961.398200  	-0.057012 
3962.829859  	-0.057116 
3964.261517  	-0.057287 
3965.693175  	-0.057278 
3967.124833  	-0.056948 
3968.556491  	-0.056895 
3969.988149  	-0.057047 
3971.419808  	-0.057032 
3972.851466  	-0.057157 
3974.283124  	-0.056904 
3975.714782  	-0.056382 
3977.146440  	-0.056548 
3978.578099  	-0.056840 
3980.009757  	-0.056926 
3981.441415  	-0.056947 
3982.873073  	-0.056489 
3984.304731  	-0.056197 
3985.736389  	-0.056516 
3987.168048  	-0.056734 
3988.599706  	-0.056664 
3990.031364  	-0.056560 
3991.463022  	-0.056675 
3992.894680  	-0.056838 
3994.326339  	-0.056871 
3995.757997  	-0.057177 
3997.189655  	-0.057191 
3998.621313  	-0.056706 
4000.052971  	-0.056773 