##TITLE=No Description
##DATA TYPE=INFRARED SPECTRUM
##XUNITS=1/CM
##YUNITS=Abs
399.432634  	0.077157 
400.864292  	0.102426 
402.295950  	0.094387 
403.727608  	0.104032 
405.159267  	0.125821 
406.590925  	0.095443 
408.022583  	0.056022 
409.454241  	0.068882 
410.885899  	0.083410 
412.317558  	0.062534 
413.749216  	0.055484 
415.180874  	0.068626 
416.612532  	0.068784 
418.044190  	0.063265 
419.475848  	0.047762 
420.907507  	0.021242 
422.339165  	0.026477 
423.770823  	0.052256 
425.202481  	0.053097 
426.634139  	0.040575 
428.065798  	0.038301 
429.497456  	0.037897 
430.929114  	0.040118 
432.360772  	0.047462 
433.792430  	0.047185 
435.224089  	0.037140 
436.655747  	0.030761 
438.087405  	0.038500 
439.519063  	0.046809 
440.950721  	0.046132 
442.382379  	0.050716 
443.814038  	0.059420 
445.245696  	0.045299 
446.677354  	0.025100 
448.109012  	0.031245 
449.540670  	0.044704 
450.972329  	0.044463 
452.403987  	0.043307 
453.835645  	0.043820 
455.267303  	0.041504 
456.698961  	0.039801 
458.130619  	0.040808 
459.562278  	0.045828 
460.993936  	0.048242 
462.425594  	0.045118 
463.857252  	0.047112 
465.288910  	0.055805 
466.720569  	0.062520 
468.152227  	0.063235 
469.583885  	0.058888 
471.015543  	0.056543 
472.447201  	0.056387 
473.878860  	0.052471 
475.310518  	0.052030 
476.742176  	0.055031 
478.173834  	0.055491 
479.605492  	0.057715 
481.037150  	0.059444 
482.468809  	0.058340 
483.900467  	0.065288 
485.332125  	0.077650 
486.763783  	0.082625 
488.195441  	0.081160 
489.627100  	0.076137 
491.058758  	0.073237 
492.490416  	0.076839 
493.922074  	0.079801 
495.353732  	0.078783 
496.785391  	0.077131 
498.217049  	0.075884 
499.648707  	0.074436 
501.080365  	0.071427 
502.512023  	0.069758 
503.943681  	0.071777 
505.375340  	0.073920 
506.806998  	0.076305 
508.238656  	0.077075 
509.670314  	0.073803 
511.101972  	0.072494 
512.533631  	0.074271 
513.965289  	0.073422 
515.396947  	0.072036 
516.828605  	0.073788 
518.260263  	0.075794 
519.691921  	0.077332 
521.123580  	0.081310 
522.555238  	0.087400 
523.986896  	0.093245 
525.418554  	0.097824 
526.850212  	0.101210 
528.281871  	0.104401 
529.713529  	0.108694 
531.145187  	0.115297 
532.576845  	0.124226 
534.008503  	0.134199 
535.440162  	0.143780 
536.871820  	0.151817 
538.303478  	0.160116 
539.735136  	0.172675 
541.166794  	0.188181 
542.598452  	0.201557 
544.030111  	0.214280 
545.461769  	0.228821 
546.893427  	0.243682 
548.325085  	0.260882 
549.756743  	0.278821 
551.188402  	0.290302 
552.620060  	0.296662 
554.051718  	0.297638 
555.483376  	0.289002 
556.915034  	0.276295 
558.346692  	0.260273 
559.778351  	0.241398 
561.210009  	0.226518 
562.641667  	0.209832 
564.073325  	0.185949 
565.504983  	0.157197 
566.936642  	0.121497 
568.368300  	0.087098 
569.799958  	0.065168 
571.231616  	0.054309 
572.663274  	0.053804 
574.094933  	0.059970 
575.526591  	0.063820 
576.958249  	0.064049 
578.389907  	0.062789 
579.821565  	0.058347 
581.253223  	0.053418 
582.684882  	0.051169 
584.116540  	0.048307 
585.548198  	0.044060 
586.979856  	0.041432 
588.411514  	0.039986 
589.843173  	0.037852 
591.274831  	0.035391 
592.706489  	0.033810 
594.138147  	0.033225 
595.569805  	0.032191 
597.001464  	0.030134 
598.433122  	0.028477 
599.864780  	0.027664 
601.296438  	0.027103 
602.728096  	0.026739 
604.159754  	0.026145 
605.591413  	0.025462 
607.023071  	0.025495 
608.454729  	0.025888 
609.886387  	0.026153 
611.318045  	0.026411 
612.749704  	0.026837 
614.181362  	0.027333 
615.613020  	0.027336 
617.044678  	0.027003 
618.476336  	0.027077 
619.907994  	0.027376 
621.339653  	0.027956 
622.771311  	0.029141 
624.202969  	0.030625 
625.634627  	0.032147 
627.066285  	0.033464 
628.497944  	0.034942 
629.929602  	0.037499 
631.361260  	0.040332 
632.792918  	0.041335 
634.224576  	0.040420 
635.656235  	0.039057 
637.087893  	0.037383 
638.519551  	0.035526 
639.951209  	0.034460 
641.382867  	0.033687 
642.814525  	0.032778 
644.246184  	0.033123 
645.677842  	0.034033 
647.109500  	0.034464 
648.541158  	0.035306 
649.972816  	0.035004 
651.404475  	0.033699 
652.836133  	0.034388 
654.267791  	0.034990 
655.699449  	0.033953 
657.131107  	0.034002 
658.562766  	0.034488 
659.994424  	0.034502 
661.426082  	0.035185 
662.857740  	0.035618 
664.289398  	0.036073 
665.721056  	0.038070 
667.152715  	0.042809 
668.584373  	0.047468 
670.016031  	0.044153 
671.447689  	0.041777 
672.879347  	0.042690 
674.311006  	0.045009 
675.742664  	0.046969 
677.174322  	0.048877 
678.605980  	0.050317 
680.037638  	0.051553 
681.469296  	0.053529 
682.900955  	0.057423 
684.332613  	0.062797 
685.764271  	0.067243 
687.195929  	0.070401 
688.627587  	0.071554 
690.059246  	0.070492 
691.490904  	0.070905 
692.922562  	0.073696 
694.354220  	0.077779 
695.785878  	0.083133 
697.217537  	0.087500 
698.649195  	0.090391 
700.080853  	0.093987 
701.512511  	0.098011 
702.944169  	0.101490 
704.375827  	0.103789 
705.807486  	0.104834 
707.239144  	0.104627 
708.670802  	0.102268 
710.102460  	0.098924 
711.534118  	0.094986 
712.965777  	0.089633 
714.397435  	0.085212 
715.829093  	0.082819 
717.260751  	0.080791 
718.692409  	0.079061 
720.124067  	0.078823 
721.555726  	0.081228 
722.987384  	0.085582 
724.419042  	0.089292 
725.850700  	0.091690 
727.282358  	0.093432 
728.714017  	0.094506 
730.145675  	0.095298 
731.577333  	0.095793 
733.008991  	0.095823 
734.440649  	0.095277 
735.872308  	0.094243 
737.303966  	0.094237 
738.735624  	0.095743 
740.167282  	0.098530 
741.598940  	0.102946 
743.030598  	0.107558 
744.462257  	0.112589 
745.893915  	0.119510 
747.325573  	0.126186 
748.757231  	0.132133 
750.188889  	0.138221 
751.620548  	0.143256 
753.052206  	0.148668 
754.483864  	0.154980 
755.915522  	0.160768 
757.347180  	0.167091 
758.778839  	0.172748 
760.210497  	0.176458 
761.642155  	0.180292 
763.073813  	0.184464 
764.505471  	0.188984 
765.937129  	0.193673 
767.368788  	0.195380 
768.800446  	0.191953 
770.232104  	0.182901 
771.663762  	0.169451 
773.095420  	0.154913 
774.527079  	0.141044 
775.958737  	0.127610 
777.390395  	0.115088 
778.822053  	0.104555 
780.253711  	0.096652 
781.685369  	0.091266 
783.117028  	0.087226 
784.548686  	0.083897 
785.980344  	0.081805 
787.412002  	0.080986 
788.843660  	0.080563 
790.275319  	0.080055 
791.706977  	0.080233 
793.138635  	0.081677 
794.570293  	0.084423 
796.001951  	0.089069 
797.433610  	0.095625 
798.865268  	0.103779 
800.296926  	0.114433 
801.728584  	0.128366 
803.160242  	0.145286 
804.591900  	0.163577 
806.023559  	0.181717 
807.455217  	0.199802 
808.886875  	0.217770 
810.318533  	0.234926 
811.750191  	0.248997 
813.181850  	0.257670 
814.613508  	0.260691 
816.045166  	0.257804 
817.476824  	0.252695 
818.908482  	0.250532 
820.340141  	0.252267 
821.771799  	0.259423 
823.203457  	0.273161 
824.635115  	0.291262 
826.066773  	0.310497 
827.498431  	0.323489 
828.930090  	0.324077 
830.361748  	0.313826 
831.793406  	0.295275 
833.225064  	0.272022 
834.656722  	0.247047 
836.088381  	0.222102 
837.520039  	0.199959 
838.951697  	0.181379 
840.383355  	0.166416 
841.815013  	0.155238 
843.246671  	0.146020 
844.678330  	0.136764 
846.109988  	0.126482 
847.541646  	0.115103 
848.973304  	0.103380 
850.404962  	0.091361 
851.836621  	0.079237 
853.268279  	0.067665 
854.699937  	0.057028 
856.131595  	0.047978 
857.563253  	0.040680 
858.994912  	0.035021 
860.426570  	0.031533 
861.858228  	0.030135 
863.289886  	0.029801 
864.721544  	0.029954 
866.153202  	0.030766 
867.584861  	0.032827 
869.016519  	0.036240 
870.448177  	0.040378 
871.879835  	0.045578 
873.311493  	0.052110 
874.743152  	0.059228 
876.174810  	0.067412 
877.606468  	0.076981 
879.038126  	0.087265 
880.469784  	0.098328 
881.901443  	0.109486 
883.333101  	0.120276 
884.764759  	0.130015 
886.196417  	0.135743 
887.628075  	0.135988 
889.059733  	0.129568 
890.491392  	0.115071 
891.923050  	0.095067 
893.354708  	0.073820 
894.786366  	0.055011 
896.218024  	0.041115 
897.649683  	0.032341 
899.081341  	0.027547 
900.512999  	0.025401 
901.944657  	0.024446 
903.376315  	0.024210 
904.807973  	0.024902 
906.239632  	0.026282 
907.671290  	0.027978 
909.102948  	0.029581 
910.534606  	0.031445 
911.966264  	0.034266 
913.397923  	0.037651 
914.829581  	0.040968 
916.261239  	0.043652 
917.692897  	0.045628 
919.124555  	0.047011 
920.556214  	0.046482 
921.987872  	0.044155 
923.419530  	0.041834 
924.851188  	0.039828 
926.282846  	0.038936 
927.714504  	0.040026 
929.146163  	0.041960 
930.577821  	0.044716 
932.009479  	0.048669 
933.441137  	0.052375 
934.872795  	0.054637 
936.304454  	0.055228 
937.736112  	0.055481 
939.167770  	0.056782 
940.599428  	0.058223 
942.031086  	0.059221 
943.462744  	0.059896 
944.894403  	0.059572 
946.326061  	0.058518 
947.757719  	0.057361 
949.189377  	0.056345 
950.621035  	0.056241 
952.052694  	0.057221 
953.484352  	0.059009 
954.916010  	0.061638 
956.347668  	0.064714 
957.779326  	0.067676 
959.210985  	0.069755 
960.642643  	0.070561 
962.074301  	0.070723 
963.505959  	0.070627 
964.937617  	0.070442 
966.369275  	0.070705 
967.800934  	0.071637 
969.232592  	0.072888 
970.664250  	0.074068 
972.095908  	0.075418 
973.527566  	0.077281 
974.959225  	0.079657 
976.390883  	0.082662 
977.822541  	0.085908 
979.254199  	0.089367 
980.685857  	0.093782 
982.117516  	0.098777 
983.549174  	0.104374 
984.980832  	0.111242 
986.412490  	0.119020 
987.844148  	0.128378 
989.275806  	0.139282 
990.707465  	0.149835 
992.139123  	0.159562 
993.570781  	0.167514 
995.002439  	0.173623 
996.434097  	0.180553 
997.865756  	0.190521 
999.297414  	0.207492 
1000.729072  	0.234469 
1002.160730  	0.268075 
1003.592388  	0.301888 
1005.024046  	0.326500 
1006.455705  	0.337194 
1007.887363  	0.340678 
1009.319021  	0.347774 
1010.750679  	0.376755 
1012.182337  	0.434558 
1013.613996  	0.476597 
1015.045654  	0.439153 
1016.477312  	0.340058 
1017.908970  	0.241518 
1019.340628  	0.169105 
1020.772287  	0.121336 
1022.203945  	0.090124 
1023.635603  	0.067560 
1025.067261  	0.051371 
1026.498919  	0.042159 
1027.930577  	0.038278 
1029.362236  	0.037097 
1030.793894  	0.037627 
1032.225552  	0.039420 
1033.657210  	0.041714 
1035.088868  	0.044637 
1036.520527  	0.048070 
1037.952185  	0.051312 
1039.383843  	0.054284 
1040.815501  	0.057027 
1042.247159  	0.059805 
1043.678818  	0.062826 
1045.110476  	0.065880 
1046.542134  	0.069172 
1047.973792  	0.072934 
1049.405450  	0.077027 
1050.837108  	0.081082 
1052.268767  	0.085148 
1053.700425  	0.089739 
1055.132083  	0.093759 
1056.563741  	0.096500 
1057.995399  	0.099441 
1059.427058  	0.102951 
1060.858716  	0.106950 
1062.290374  	0.111811 
1063.722032  	0.117389 
1065.153690  	0.124490 
1066.585348  	0.133121 
1068.017007  	0.142776 
1069.448665  	0.154719 
1070.880323  	0.169589 
1072.311981  	0.188930 
1073.743639  	0.215115 
1075.175298  	0.250978 
1076.606956  	0.302323 
1078.038614  	0.359619 
1079.470272  	0.389722 
1080.901930  	0.372401 
1082.333589  	0.317915 
1083.765247  	0.254178 
1085.196905  	0.200130 
1086.628563  	0.160827 
1088.060221  	0.137774 
1089.491879  	0.129005 
1090.923538  	0.129881 
1092.355196  	0.136840 
1093.786854  	0.147390 
1095.218512  	0.161172 
1096.650170  	0.179483 
1098.081829  	0.200180 
1099.513487  	0.220019 
1100.945145  	0.234161 
1102.376803  	0.238098 
1103.808461  	0.236270 
1105.240120  	0.233481 
1106.671778  	0.232169 
1108.103436  	0.233340 
1109.535094  	0.232259 
1110.966752  	0.227307 
1112.398410  	0.220921 
1113.830069  	0.214177 
1115.261727  	0.209898 
1116.693385  	0.208485 
1118.125043  	0.208644 
1119.556701  	0.211652 
1120.988360  	0.216719 
1122.420018  	0.223145 
1123.851676  	0.231426 
1125.283334  	0.240275 
1126.714992  	0.250764 
1128.146650  	0.262957 
1129.578309  	0.275636 
1131.009967  	0.290451 
1132.441625  	0.306080 
1133.873283  	0.322848 
1135.304941  	0.342612 
1136.736600  	0.362634 
1138.168258  	0.385147 
1139.599916  	0.410588 
1141.031574  	0.436123 
1142.463232  	0.466243 
1143.894891  	0.497654 
1145.326549  	0.528051 
1146.758207  	0.563281 
1148.189865  	0.598148 
1149.621523  	0.634627 
1151.053181  	0.673938 
1152.484840  	0.707290 
1153.916498  	0.742960 
1155.348156  	0.775207 
1156.779814  	0.795002 
1158.211472  	0.808170 
1159.643131  	0.796861 
1161.074789  	0.761188 
1162.506447  	0.708125 
1163.938105  	0.635965 
1165.369763  	0.560654 
1166.801421  	0.486642 
1168.233080  	0.419964 
1169.664738  	0.372436 
1171.096396  	0.347547 
1172.528054  	0.350017 
1173.959712  	0.380913 
1175.391371  	0.429159 
1176.823029  	0.483522 
1178.254687  	0.534238 
1179.686345  	0.577472 
1181.118003  	0.625485 
1182.549662  	0.675984 
1183.981320  	0.721231 
1185.412978  	0.756511 
1186.844636  	0.762178 
1188.276294  	0.746445 
1189.707952  	0.717657 
1191.139611  	0.674552 
1192.571269  	0.631911 
1194.002927  	0.586712 
1195.434585  	0.538551 
1196.866243  	0.494062 
1198.297902  	0.449183 
1199.729560  	0.407265 
1201.161218  	0.370018 
1202.592876  	0.335936 
1204.024534  	0.310934 
1205.456193  	0.297979 
1206.887851  	0.300512 
1208.319509  	0.324131 
1209.751167  	0.365068 
1211.182825  	0.416800 
1212.614483  	0.472501 
1214.046142  	0.518439 
1215.477800  	0.553094 
1216.909458  	0.574564 
1218.341116  	0.579603 
1219.772774  	0.578543 
1221.204433  	0.568980 
1222.636091  	0.553389 
1224.067749  	0.538436 
1225.499407  	0.518966 
1226.931065  	0.499880 
1228.362723  	0.482204 
1229.794382  	0.462582 
1231.226040  	0.445814 
1232.657698  	0.428798 
1234.089356  	0.411294 
1235.521014  	0.396609 
1236.952673  	0.380922 
1238.384331  	0.366637 
1239.815989  	0.354096 
1241.247647  	0.339745 
1242.679305  	0.326706 
1244.110964  	0.313467 
1245.542622  	0.298425 
1246.974280  	0.283439 
1248.405938  	0.265978 
1249.837596  	0.247220 
1251.269254  	0.228337 
1252.700913  	0.207612 
1254.132571  	0.186861 
1255.564229  	0.165801 
1256.995887  	0.144317 
1258.427545  	0.124489 
1259.859204  	0.105508 
1261.290862  	0.087409 
1262.722520  	0.071476 
1264.154178  	0.057632 
1265.585836  	0.046100 
1267.017495  	0.036902 
1268.449153  	0.029512 
1269.880811  	0.023733 
1271.312469  	0.019261 
1272.744127  	0.016020 
1274.175785  	0.014260 
1275.607444  	0.013520 
1277.039102  	0.013563 
1278.470760  	0.014759 
1279.902418  	0.016624 
1281.334076  	0.018783 
1282.765735  	0.021479 
1284.197393  	0.024469 
1285.629051  	0.027386 
1287.060709  	0.029927 
1288.492367  	0.032140 
1289.924025  	0.033889 
1291.355684  	0.034211 
1292.787342  	0.032801 
1294.219000  	0.029862 
1295.650658  	0.025521 
1297.082316  	0.020377 
1298.513975  	0.015060 
1299.945633  	0.009924 
1301.377291  	0.005661 
1302.808949  	0.002584 
1304.240607  	0.000565 
1305.672266  	0.000121 
1307.103924  	0.001068 
1308.535582  	0.002425 
1309.967240  	0.002772 
1311.398898  	0.000690 
1312.830556  	-0.003527 
1314.262215  	-0.008474 
1315.693873  	-0.012962 
1317.125531  	-0.015994 
1318.557189  	-0.017844 
1319.988847  	-0.019387 
1321.420506  	-0.020171 
1322.852164  	-0.020568 
1324.283822  	-0.020971 
1325.715480  	-0.021184 
1327.147138  	-0.021697 
1328.578796  	-0.022041 
1330.010455  	-0.022109 
1331.442113  	-0.022537 
1332.873771  	-0.022598 
1334.305429  	-0.022449 
1335.737087  	-0.022394 
1337.168746  	-0.021806 
1338.600404  	-0.021273 
1340.032062  	-0.020850 
1341.463720  	-0.020422 
1342.895378  	-0.020280 
1344.327037  	-0.019507 
1345.758695  	-0.018346 
1347.190353  	-0.017023 
1348.622011  	-0.014910 
1350.053669  	-0.013198 
1351.485327  	-0.011930 
1352.916986  	-0.010653 
1354.348644  	-0.010031 
1355.780302  	-0.009081 
1357.211960  	-0.007585 
1358.643618  	-0.004665 
1360.075277  	0.002593 
1361.506935  	0.014183 
1362.938593  	0.027760 
1364.370251  	0.034034 
1365.801909  	0.028986 
1367.233568  	0.017907 
1368.665226  	0.005961 
1370.096884  	-0.002830 
1371.528542  	-0.007599 
1372.960200  	-0.009561 
1374.391858  	-0.011088 
1375.823517  	-0.012254 
1377.255175  	-0.012516 
1378.686833  	-0.012264 
1380.118491  	-0.010983 
1381.550149  	-0.008282 
1382.981808  	-0.003000 
1384.413466  	0.003428 
1385.845124  	0.008111 
1387.276782  	0.008518 
1388.708440  	0.003977 
1390.140098  	-0.001230 
1391.571757  	-0.006051 
1393.003415  	-0.009062 
1394.435073  	-0.010033 
1395.866731  	-0.010384 
1397.298389  	-0.009704 
1398.730048  	-0.007756 
1400.161706  	-0.005290 
1401.593364  	-0.001694 
1403.025022  	0.003540 
1404.456680  	0.010153 
1405.888339  	0.018327 
1407.319997  	0.025665 
1408.751655  	0.029440 
1410.183313  	0.029642 
1411.614971  	0.025009 
1413.046629  	0.017164 
1414.478288  	0.009547 
1415.909946  	0.002047 
1417.341604  	-0.003656 
1418.773262  	-0.007376 
1420.204920  	-0.011670 
1421.636579  	-0.013601 
1423.068237  	-0.014477 
1424.499895  	-0.016460 
1425.931553  	-0.017717 
1427.363211  	-0.018365 
1428.794870  	-0.018890 
1430.226528  	-0.018772 
1431.658186  	-0.019300 
1433.089844  	-0.019225 
1434.521502  	-0.018347 
1435.953160  	-0.017872 
1437.384819  	-0.016389 
1438.816477  	-0.014963 
1440.248135  	-0.013033 
1441.679793  	-0.009681 
1443.111451  	-0.007035 
1444.543110  	-0.003739 
1445.974768  	0.000569 
1447.406426  	0.004313 
1448.838084  	0.007612 
1450.269742  	0.007840 
1451.701400  	0.005757 
1453.133059  	0.003827 
1454.564717  	0.002986 
1455.996375  	0.003886 
1457.428033  	0.007866 
1458.859691  	0.011158 
1460.291350  	0.015770 
1461.723008  	0.020263 
1463.154666  	0.023370 
1464.586324  	0.025663 
1466.017982  	0.024367 
1467.449641  	0.022640 
1468.881299  	0.020819 
1470.312957  	0.018556 
1471.744615  	0.018206 
1473.176273  	0.016518 
1474.607931  	0.014900 
1476.039590  	0.016337 
1477.471248  	0.016397 
1478.902906  	0.017493 
1480.334564  	0.021205 
1481.766222  	0.024531 
1483.197881  	0.029822 
1484.629539  	0.037316 
1486.061197  	0.045303 
1487.492855  	0.057448 
1488.924513  	0.070939 
1490.356172  	0.085293 
1491.787830  	0.106541 
1493.219488  	0.125518 
1494.651146  	0.145612 
1496.082804  	0.174057 
1497.514462  	0.201253 
1498.946121  	0.228042 
1500.377779  	0.253158 
1501.809437  	0.264372 
1503.241095  	0.270351 
1504.672753  	0.269406 
1506.104412  	0.248975 
1507.536070  	0.207413 
1508.967728  	0.168809 
1510.399386  	0.134880 
1511.831044  	0.103127 
1513.262702  	0.074015 
1514.694361  	0.053410 
1516.126019  	0.039428 
1517.557677  	0.024856 
1518.989335  	0.015964 
1520.420993  	0.012650 
1521.852652  	0.006249 
1523.284310  	0.001390 
1524.715968  	0.000041 
1526.147626  	-0.003302 
1527.579284  	-0.006006 
1529.010943  	-0.007823 
1530.442601  	-0.010429 
1531.874259  	-0.011387 
1533.305917  	-0.012835 
1534.737575  	-0.016667 
1536.169233  	-0.018150 
1537.600892  	-0.019215 
1539.032550  	-0.019730 
1540.464208  	-0.020067 
1541.895866  	-0.022924 
1543.327524  	-0.023440 
1544.759183  	-0.023958 
1546.190841  	-0.025651 
1547.622499  	-0.025755 
1549.054157  	-0.025736 
1550.485815  	-0.026349 
1551.917473  	-0.026566 
1553.349132  	-0.026695 
1554.780790  	-0.026527 
1556.212448  	-0.026415 
1557.644106  	-0.026001 
1559.075764  	-0.024608 
1560.507423  	-0.026707 
1561.939081  	-0.026472 
1563.370739  	-0.025282 
1564.802397  	-0.024382 
1566.234055  	-0.022729 
1567.665714  	-0.020661 
1569.097372  	-0.018594 
1570.529030  	-0.017618 
1571.960688  	-0.019526 
1573.392346  	-0.021675 
1574.824004  	-0.022521 
1576.255663  	-0.022487 
1577.687321  	-0.022101 
1579.118979  	-0.021121 
1580.550637  	-0.019779 
1581.982295  	-0.017662 
1583.413954  	-0.014824 
1584.845612  	-0.011803 
1586.277270  	-0.009409 
1587.708928  	-0.007384 
1589.140586  	-0.004993 
1590.572245  	-0.003145 
1592.003903  	-0.002138 
1593.435561  	-0.002093 
1594.867219  	-0.003054 
1596.298877  	-0.004007 
1597.730535  	-0.004547 
1599.162194  	-0.004286 
1600.593852  	-0.003345 
1602.025510  	-0.002663 
1603.457168  	-0.002624 
1604.888826  	-0.003815 
1606.320485  	-0.005905 
1607.752143  	-0.008471 
1609.183801  	-0.011879 
1610.615459  	-0.015078 
1612.047117  	-0.017849 
1613.478775  	-0.019901 
1614.910434  	-0.020912 
1616.342092  	-0.021905 
1617.773750  	-0.023256 
1619.205408  	-0.023973 
1620.637066  	-0.024212 
1622.068725  	-0.024033 
1623.500383  	-0.024211 
1624.932041  	-0.024849 
1626.363699  	-0.024820 
1627.795357  	-0.024640 
1629.227016  	-0.024675 
1630.658674  	-0.024496 
1632.090332  	-0.024239 
1633.521990  	-0.023857 
1634.953648  	-0.023121 
1636.385306  	-0.023120 
1637.816965  	-0.023974 
1639.248623  	-0.024426 
1640.680281  	-0.024868 
1642.111939  	-0.025085 
1643.543597  	-0.024838 
1644.975256  	-0.024199 
1646.406914  	-0.023670 
1647.838572  	-0.024332 
1649.270230  	-0.024885 
1650.701888  	-0.024653 
1652.133547  	-0.023865 
1653.565205  	-0.023744 
1654.996863  	-0.025370 
1656.428521  	-0.025543 
1657.860179  	-0.025541 
1659.291837  	-0.025888 
1660.723496  	-0.025860 
1662.155154  	-0.025581 
1663.586812  	-0.025969 
1665.018470  	-0.026328 
1666.450128  	-0.026380 
1667.881787  	-0.026178 
1669.313445  	-0.025815 
1670.745103  	-0.026619 
1672.176761  	-0.027324 
1673.608419  	-0.027030 
1675.040077  	-0.027025 
1676.471736  	-0.027557 
1677.903394  	-0.027473 
1679.335052  	-0.027213 
1680.766710  	-0.027017 
1682.198368  	-0.026528 
1683.630027  	-0.025257 
1685.061685  	-0.025994 
1686.493343  	-0.027245 
1687.925001  	-0.026691 
1689.356659  	-0.026130 
1690.788318  	-0.026033 
1692.219976  	-0.025458 
1693.651634  	-0.024738 
1695.083292  	-0.023519 
1696.514950  	-0.022657 
1697.946608  	-0.022902 
1699.378267  	-0.021594 
1700.809925  	-0.020889 
1702.241583  	-0.021338 
1703.673241  	-0.019520 
1705.104899  	-0.018167 
1706.536558  	-0.017670 
1707.968216  	-0.016289 
1709.399874  	-0.015771 
1710.831532  	-0.014889 
1712.263190  	-0.013225 
1713.694849  	-0.012255 
1715.126507  	-0.010286 
1716.558165  	-0.008335 
1717.989823  	-0.007947 
1719.421481  	-0.006636 
1720.853139  	-0.005690 
1722.284798  	-0.004037 
1723.716456  	-0.001516 
1725.148114  	-0.000147 
1726.579772  	0.001963 
1728.011430  	0.004274 
1729.443089  	0.005889 
1730.874747  	0.008546 
1732.306405  	0.010183 
1733.738063  	0.011645 
1735.169721  	0.014195 
1736.601379  	0.015228 
1738.033038  	0.018289 
1739.464696  	0.021654 
1740.896354  	0.023212 
1742.328012  	0.027510 
1743.759670  	0.031522 
1745.191329  	0.035605 
1746.622987  	0.042629 
1748.054645  	0.048618 
1749.486303  	0.056468 
1750.917961  	0.067525 
1752.349620  	0.078230 
1753.781278  	0.093120 
1755.212936  	0.109289 
1756.644594  	0.128577 
1758.076252  	0.157248 
1759.507910  	0.184182 
1760.939569  	0.212917 
1762.371227  	0.252463 
1763.802885  	0.284121 
1765.234543  	0.308097 
1766.666201  	0.330155 
1768.097860  	0.336305 
1769.529518  	0.336038 
1770.961176  	0.335001 
1772.392834  	0.315608 
1773.824492  	0.296835 
1775.256150  	0.282165 
1776.687809  	0.259351 
1778.119467  	0.240800 
1779.551125  	0.222203 
1780.982783  	0.197079 
1782.414441  	0.177900 
1783.846100  	0.159367 
1785.277758  	0.138047 
1786.709416  	0.120303 
1788.141074  	0.101738 
1789.572732  	0.085392 
1791.004391  	0.071942 
1792.436049  	0.052985 
1793.867707  	0.038775 
1795.299365  	0.029069 
1796.731023  	0.017676 
1798.162681  	0.010557 
1799.594340  	0.003868 
1801.025998  	-0.003468 
1802.457656  	-0.006899 
1803.889314  	-0.011471 
1805.320972  	-0.014705 
1806.752631  	-0.016438 
1808.184289  	-0.019916 
1809.615947  	-0.020924 
1811.047605  	-0.021981 
1812.479263  	-0.024331 
1813.910922  	-0.024437 
1815.342580  	-0.026037 
1816.774238  	-0.027300 
1818.205896  	-0.026958 
1819.637554  	-0.028571 
1821.069212  	-0.028694 
1822.500871  	-0.028616 
1823.932529  	-0.029823 
1825.364187  	-0.029182 
1826.795845  	-0.030143 
1828.227503  	-0.030818 
1829.659162  	-0.029539 
1831.090820  	-0.030809 
1832.522478  	-0.030991 
1833.954136  	-0.030865 
1835.385794  	-0.032211 
1836.817452  	-0.031575 
1838.249111  	-0.031914 
1839.680769  	-0.032967 
1841.112427  	-0.032035 
1842.544085  	-0.032415 
1843.975743  	-0.032553 
1845.407402  	-0.032370 
1846.839060  	-0.033770 
1848.270718  	-0.033112 
1849.702376  	-0.032892 
1851.134034  	-0.033260 
1852.565693  	-0.032165 
1853.997351  	-0.033146 
1855.429009  	-0.033755 
1856.860667  	-0.032891 
1858.292325  	-0.033719 
1859.723983  	-0.033268 
1861.155642  	-0.032979 
1862.587300  	-0.034260 
1864.018958  	-0.033777 
1865.450616  	-0.033686 
1866.882274  	-0.033293 
1868.313933  	-0.032082 
1869.745591  	-0.034068 
1871.177249  	-0.034327 
1872.608907  	-0.033236 
1874.040565  	-0.033756 
1875.472224  	-0.033096 
1876.903882  	-0.032892 
1878.335540  	-0.033559 
1879.767198  	-0.033145 
1881.198856  	-0.033416 
1882.630514  	-0.032973 
1884.062173  	-0.032450 
1885.493831  	-0.033039 
1886.925489  	-0.031724 
1888.357147  	-0.030826 
1889.788805  	-0.031167 
1891.220464  	-0.030564 
1892.652122  	-0.030850 
1894.083780  	-0.030260 
1895.515438  	-0.029147 
1896.947096  	-0.029665 
1898.378754  	-0.029193 
1899.810413  	-0.029527 
1901.242071  	-0.030325 
1902.673729  	-0.029192 
1904.105387  	-0.029724 
1905.537045  	-0.030432 
1906.968704  	-0.030252 
1908.400362  	-0.031811 
1909.832020  	-0.032011 
1911.263678  	-0.032223 
1912.695336  	-0.033872 
1914.126995  	-0.033742 
1915.558653  	-0.034621 
1916.990311  	-0.035690 
1918.421969  	-0.034766 
1919.853627  	-0.035502 
1921.285285  	-0.035192 
1922.716944  	-0.034401 
1924.148602  	-0.035547 
1925.580260  	-0.034572 
1927.011918  	-0.034293 
1928.443576  	-0.035566 
1929.875235  	-0.035203 
1931.306893  	-0.035853 
1932.738551  	-0.036079 
1934.170209  	-0.035763 
1935.601867  	-0.037159 
1937.033525  	-0.036425 
1938.465184  	-0.035566 
1939.896842  	-0.035989 
1941.328500  	-0.035524 
1942.760158  	-0.037197 
1944.191816  	-0.037247 
1945.623475  	-0.035473 
1947.055133  	-0.036427 
1948.486791  	-0.035194 
1949.918449  	-0.033837 
1951.350107  	-0.035128 
1952.781766  	-0.034811 
1954.213424  	-0.035595 
1955.645082  	-0.036129 
1957.076740  	-0.035430 
1958.508398  	-0.037128 
1959.940056  	-0.035327 
1961.371715  	-0.033455 
1962.803373  	-0.035673 
1964.235031  	-0.034301 
1965.666689  	-0.034105 
1967.098347  	-0.035917 
1968.530006  	-0.034946 
1969.961664  	-0.035798 
1971.393322  	-0.034359 
1972.824980  	-0.033733 
1974.256638  	-0.037632 
1975.688297  	-0.034734 
1977.119955  	-0.031286 
1978.551613  	-0.033590 
1979.983271  	-0.034845 
1981.414929  	-0.036529 
1982.846587  	-0.036002 
1984.278246  	-0.035148 
1985.709904  	-0.037218 
1987.141562  	-0.035849 
1988.573220  	-0.035901 
1990.004878  	-0.037621 
1991.436537  	-0.034447 
1992.868195  	-0.034756 
1994.299853  	-0.036780 
1995.731511  	-0.035282 
1997.163169  	-0.035699 
1998.594827  	-0.035333 
2000.026486  	-0.035574 
2001.458144  	-0.037998 
2002.889802  	-0.036493 
2004.321460  	-0.036126 
2005.753118  	-0.037019 
2007.184777  	-0.034767 
2008.616435  	-0.035035 
2010.048093  	-0.035475 
2011.479751  	-0.035751 
2012.911409  	-0.036949 
2014.343068  	-0.034933 
2015.774726  	-0.035771 
2017.206384  	-0.037034 
2018.638042  	-0.034827 
2020.069700  	-0.037182 
2021.501358  	-0.037417 
2022.933017  	-0.034663 
2024.364675  	-0.036042 
2025.796333  	-0.035058 
2027.227991  	-0.035222 
2028.659649  	-0.037507 
2030.091308  	-0.035450 
2031.522966  	-0.035433 
2032.954624  	-0.034559 
2034.386282  	-0.032406 
2035.817940  	-0.035498 
2037.249599  	-0.035208 
2038.681257  	-0.032983 
2040.112915  	-0.033605 
2041.544573  	-0.032741 
2042.976231  	-0.034196 
2044.407889  	-0.035968 
2045.839548  	-0.035007 
2047.271206  	-0.036032 
2048.702864  	-0.035478 
2050.134522  	-0.033515 
2051.566180  	-0.033326 
2052.997839  	-0.032727 
2054.429497  	-0.033251 
2055.861155  	-0.033293 
2057.292813  	-0.032944 
2058.724471  	-0.035570 
2060.156129  	-0.036124 
2061.587788  	-0.034917 
2063.019446  	-0.036083 
2064.451104  	-0.036395 
2065.882762  	-0.036817 
2067.314420  	-0.037332 
2068.746079  	-0.036362 
2070.177737  	-0.036623 
2071.609395  	-0.035650 
2073.041053  	-0.034570 
2074.472711  	-0.036241 
2075.904370  	-0.035707 
2077.336028  	-0.034862 
2078.767686  	-0.036436 
2080.199344  	-0.036659 
2081.631002  	-0.036793 
2083.062660  	-0.037216 
2084.494319  	-0.036890 
2085.925977  	-0.036934 
2087.357635  	-0.036218 
2088.789293  	-0.036381 
2090.220951  	-0.037269 
2091.652610  	-0.036599 
2093.084268  	-0.037581 
2094.515926  	-0.038710 
2095.947584  	-0.037871 
2097.379242  	-0.038540 
2098.810901  	-0.038157 
2100.242559  	-0.036609 
2101.674217  	-0.037029 
2103.105875  	-0.037016 
2104.537533  	-0.037551 
2105.969191  	-0.038669 
2107.400850  	-0.037978 
2108.832508  	-0.037988 
2110.264166  	-0.038145 
2111.695824  	-0.037637 
2113.127482  	-0.037874 
2114.559141  	-0.037421 
2115.990799  	-0.037566 
2117.422457  	-0.037928 
2118.854115  	-0.036907 
2120.285773  	-0.037670 
2121.717431  	-0.038300 
2123.149090  	-0.037311 
2124.580748  	-0.038099 
2126.012406  	-0.037962 
2127.444064  	-0.036805 
2128.875722  	-0.037404 
2130.307381  	-0.037397 
2131.739039  	-0.037855 
2133.170697  	-0.038453 
2134.602355  	-0.037141 
2136.034013  	-0.037435 
2137.465672  	-0.037415 
2138.897330  	-0.036298 
2140.328988  	-0.037454 
2141.760646  	-0.037060 
2143.192304  	-0.034868 
2144.623962  	-0.033544 
2146.055621  	-0.033380 
2147.487279  	-0.035987 
2148.918937  	-0.036545 
2150.350595  	-0.033884 
2151.782253  	-0.034121 
2153.213912  	-0.034959 
2154.645570  	-0.034898 
2156.077228  	-0.034907 
2157.508886  	-0.034048 
2158.940544  	-0.034265 
2160.372202  	-0.031651 
2161.803861  	-0.030107 
2163.235519  	-0.034154 
2164.667177  	-0.035650 
2166.098835  	-0.035699 
2167.530493  	-0.036122 
2168.962152  	-0.034703 
2170.393810  	-0.036522 
2171.825468  	-0.037466 
2173.257126  	-0.035107 
2174.688784  	-0.036124 
2176.120443  	-0.036530 
2177.552101  	-0.035486 
2178.983759  	-0.036005 
2180.415417  	-0.034612 
2181.847075  	-0.034736 
2183.278733  	-0.035659 
2184.710392  	-0.034013 
2186.142050  	-0.035008 
2187.573708  	-0.035865 
2189.005366  	-0.034342 
2190.437024  	-0.034631 
2191.868683  	-0.034318 
2193.300341  	-0.033255 
2194.731999  	-0.033040 
2196.163657  	-0.032719 
2197.595315  	-0.034041 
2199.026974  	-0.035358 
2200.458632  	-0.035068 
2201.890290  	-0.034861 
2203.321948  	-0.034312 
2204.753606  	-0.034584 
2206.185264  	-0.035164 
2207.616923  	-0.034719 
2209.048581  	-0.035138 
2210.480239  	-0.034998 
2211.911897  	-0.034489 
2213.343555  	-0.034778 
2214.775214  	-0.033409 
2216.206872  	-0.032906 
2217.638530  	-0.034035 
2219.070188  	-0.033942 
2220.501846  	-0.034007 
2221.933504  	-0.033327 
2223.365163  	-0.032604 
2224.796821  	-0.033800 
2226.228479  	-0.032919 
2227.660137  	-0.031856 
2229.091795  	-0.033768 
2230.523454  	-0.034845 
2231.955112  	-0.034865 
2233.386770  	-0.034365 
2234.818428  	-0.033727 
2236.250086  	-0.034798 
2237.681745  	-0.034709 
2239.113403  	-0.033710 
2240.545061  	-0.033894 
2241.976719  	-0.033188 
2243.408377  	-0.033067 
2244.840035  	-0.033725 
2246.271694  	-0.033618 
2247.703352  	-0.034709 
2249.135010  	-0.035289 
2250.566668  	-0.034881 
2251.998326  	-0.035622 
2253.429985  	-0.035295 
2254.861643  	-0.034760 
2256.293301  	-0.035269 
2257.724959  	-0.034894 
2259.156617  	-0.035376 
2260.588276  	-0.036387 
2262.019934  	-0.036248 
2263.451592  	-0.036461 
2264.883250  	-0.036604 
2266.314908  	-0.037152 
2267.746566  	-0.038339 
2269.178225  	-0.037936 
2270.609883  	-0.037116 
2272.041541  	-0.036654 
2273.473199  	-0.036539 
2274.904857  	-0.037962 
2276.336516  	-0.038634 
2277.768174  	-0.038184 
2279.199832  	-0.038573 
2280.631490  	-0.038344 
2282.063148  	-0.037761 
2283.494806  	-0.038000 
2284.926465  	-0.038322 
2286.358123  	-0.038695 
2287.789781  	-0.038404 
2289.221439  	-0.037834 
2290.653097  	-0.038085 
2292.084756  	-0.037929 
2293.516414  	-0.037613 
2294.948072  	-0.037796 
2296.379730  	-0.037447 
2297.811388  	-0.037031 
2299.243047  	-0.036815 
2300.674705  	-0.036415 
2302.106363  	-0.036040 
2303.538021  	-0.035369 
2304.969679  	-0.034977 
2306.401337  	-0.034867 
2307.832996  	-0.034111 
2309.264654  	-0.033587 
2310.696312  	-0.033095 
2312.127970  	-0.031979 
2313.559628  	-0.031598 
2314.991287  	-0.031818 
2316.422945  	-0.031676 
2317.854603  	-0.030856 
2319.286261  	-0.029186 
2320.717919  	-0.028000 
2322.149577  	-0.027596 
2323.581236  	-0.027235 
2325.012894  	-0.027253 
2326.444552  	-0.027012 
2327.876210  	-0.026202 
2329.307868  	-0.025355 
2330.739527  	-0.024594 
2332.171185  	-0.024662 
2333.602843  	-0.025093 
2335.034501  	-0.024957 
2336.466159  	-0.024884 
2337.897818  	-0.024561 
2339.329476  	-0.024117 
2340.761134  	-0.024126 
2342.192792  	-0.023751 
2343.624450  	-0.023638 
2345.056108  	-0.024318 
2346.487767  	-0.026035 
2347.919425  	-0.028937 
2349.351083  	-0.029872 
2350.782741  	-0.027581 
2352.214399  	-0.024897 
2353.646058  	-0.023308 
2355.077716  	-0.021366 
2356.509374  	-0.019747 
2357.941032  	-0.018828 
2359.372690  	-0.018344 
2360.804349  	-0.018520 
2362.236007  	-0.018780 
2363.667665  	-0.019319 
2365.099323  	-0.020178 
2366.530981  	-0.021255 
2367.962639  	-0.022370 
2369.394298  	-0.022936 
2370.825956  	-0.024275 
2372.257614  	-0.026419 
2373.689272  	-0.027887 
2375.120930  	-0.029367 
2376.552589  	-0.030645 
2377.984247  	-0.031417 
2379.415905  	-0.032914 
2380.847563  	-0.034449 
2382.279221  	-0.035347 
2383.710879  	-0.036340 
2385.142538  	-0.037177 
2386.574196  	-0.037686 
2388.005854  	-0.038002 
2389.437512  	-0.037919 
2390.869170  	-0.037846 
2392.300829  	-0.037914 
2393.732487  	-0.037773 
2395.164145  	-0.037634 
2396.595803  	-0.037793 
2398.027461  	-0.037982 
2399.459120  	-0.037956 
2400.890778  	-0.038047 
2402.322436  	-0.037899 
2403.754094  	-0.037138 
2405.185752  	-0.037109 
2406.617410  	-0.037722 
2408.049069  	-0.037584 
2409.480727  	-0.037357 
2410.912385  	-0.037254 
2412.344043  	-0.036958 
2413.775701  	-0.037181 
2415.207360  	-0.037334 
2416.639018  	-0.037112 
2418.070676  	-0.037383 
2419.502334  	-0.037747 
2420.933992  	-0.037725 
2422.365651  	-0.037518 
2423.797309  	-0.037550 
2425.228967  	-0.037992 
2426.660625  	-0.038107 
2428.092283  	-0.038193 
2429.523941  	-0.038409 
2430.955600  	-0.037809 
2432.387258  	-0.037569 
2433.818916  	-0.038218 
2435.250574  	-0.038204 
2436.682232  	-0.037869 
2438.113891  	-0.037804 
2439.545549  	-0.037902 
2440.977207  	-0.038378 
2442.408865  	-0.038425 
2443.840523  	-0.038053 
2445.272181  	-0.038073 
2446.703840  	-0.038173 
2448.135498  	-0.038232 
2449.567156  	-0.038232 
2450.998814  	-0.038345 
2452.430472  	-0.038656 
2453.862131  	-0.038383 
2455.293789  	-0.038203 
2456.725447  	-0.038614 
2458.157105  	-0.038479 
2459.588763  	-0.038243 
2461.020422  	-0.038271 
2462.452080  	-0.038131 
2463.883738  	-0.038362 
2465.315396  	-0.038398 
2466.747054  	-0.038051 
2468.178712  	-0.038256 
2469.610371  	-0.038341 
2471.042029  	-0.038124 
2472.473687  	-0.038204 
2473.905345  	-0.038253 
2475.337003  	-0.038323 
2476.768662  	-0.038318 
2478.200320  	-0.038175 
2479.631978  	-0.038301 
2481.063636  	-0.038371 
2482.495294  	-0.038346 
2483.926953  	-0.038289 
2485.358611  	-0.038171 
2486.790269  	-0.038468 
2488.221927  	-0.038669 
2489.653585  	-0.038627 
2491.085243  	-0.038890 
2492.516902  	-0.038840 
2493.948560  	-0.038757 
2495.380218  	-0.038939 
2496.811876  	-0.038718 
2498.243534  	-0.038916 
2499.675193  	-0.039392 
2501.106851  	-0.039160 
2502.538509  	-0.039194 
2503.970167  	-0.039515 
2505.401825  	-0.039347 
2506.833483  	-0.039209 
2508.265142  	-0.039450 
2509.696800  	-0.039840 
2511.128458  	-0.039683 
2512.560116  	-0.039229 
2513.991774  	-0.039550 
2515.423433  	-0.039882 
2516.855091  	-0.039652 
2518.286749  	-0.039477 
2519.718407  	-0.039443 
2521.150065  	-0.039872 
2522.581724  	-0.040258 
2524.013382  	-0.040026 
2525.445040  	-0.040024 
2526.876698  	-0.040110 
2528.308356  	-0.040192 
2529.740014  	-0.040402 
2531.171673  	-0.039960 
2532.603331  	-0.039879 
2534.034989  	-0.040375 
2535.466647  	-0.040125 
2536.898305  	-0.040184 
2538.329964  	-0.040586 
2539.761622  	-0.040257 
2541.193280  	-0.040176 
2542.624938  	-0.040261 
2544.056596  	-0.040070 
2545.488254  	-0.040057 
2546.919913  	-0.040094 
2548.351571  	-0.040485 
2549.783229  	-0.040738 
2551.214887  	-0.040461 
2552.646545  	-0.040671 
2554.078204  	-0.040804 
2555.509862  	-0.040651 
2556.941520  	-0.040727 
2558.373178  	-0.040179 
2559.804836  	-0.039913 
2561.236495  	-0.040462 
2562.668153  	-0.040496 
2564.099811  	-0.040567 
2565.531469  	-0.040634 
2566.963127  	-0.040340 
2568.394785  	-0.040727 
2569.826444  	-0.040802 
2571.258102  	-0.040325 
2572.689760  	-0.040526 
2574.121418  	-0.040451 
2575.553076  	-0.040083 
2576.984735  	-0.040117 
2578.416393  	-0.040011 
2579.848051  	-0.040286 
2581.279709  	-0.040631 
2582.711367  	-0.040161 
2584.143026  	-0.040069 
2585.574684  	-0.040557 
2587.006342  	-0.040471 
2588.438000  	-0.039977 
2589.869658  	-0.039805 
2591.301316  	-0.040009 
2592.732975  	-0.040171 
2594.164633  	-0.040384 
2595.596291  	-0.040741 
2597.027949  	-0.040697 
2598.459607  	-0.040598 
2599.891266  	-0.040908 
2601.322924  	-0.041031 
2602.754582  	-0.040840 
2604.186240  	-0.040666 
2605.617898  	-0.040600 
2607.049556  	-0.040584 
2608.481215  	-0.040452 
2609.912873  	-0.040377 
2611.344531  	-0.040459 
2612.776189  	-0.040596 
2614.207847  	-0.040807 
2615.639506  	-0.040926 
2617.071164  	-0.040954 
2618.502822  	-0.040808 
2619.934480  	-0.040442 
2621.366138  	-0.040546 
2622.797797  	-0.041018 
2624.229455  	-0.041250 
2625.661113  	-0.041371 
2627.092771  	-0.041216 
2628.524429  	-0.041030 
2629.956087  	-0.041180 
2631.387746  	-0.041073 
2632.819404  	-0.041047 
2634.251062  	-0.041437 
2635.682720  	-0.041508 
2637.114378  	-0.041406 
2638.546037  	-0.041287 
2639.977695  	-0.041086 
2641.409353  	-0.041220 
2642.841011  	-0.041271 
2644.272669  	-0.041096 
2645.704328  	-0.041147 
2647.135986  	-0.041156 
2648.567644  	-0.041201 
2649.999302  	-0.041286 
2651.430960  	-0.041063 
2652.862618  	-0.040993 
2654.294277  	-0.041110 
2655.725935  	-0.041072 
2657.157593  	-0.041080 
2658.589251  	-0.041054 
2660.020909  	-0.040916 
2661.452568  	-0.040727 
2662.884226  	-0.040543 
2664.315884  	-0.040688 
2665.747542  	-0.040920 
2667.179200  	-0.040900 
2668.610858  	-0.040822 
2670.042517  	-0.040723 
2671.474175  	-0.040787 
2672.905833  	-0.040904 
2674.337491  	-0.040739 
2675.769149  	-0.040738 
2677.200808  	-0.040873 
2678.632466  	-0.040808 
2680.064124  	-0.040823 
2681.495782  	-0.040696 
2682.927440  	-0.040465 
2684.359099  	-0.040595 
2685.790757  	-0.040779 
2687.222415  	-0.040849 
2688.654073  	-0.040788 
2690.085731  	-0.040601 
2691.517389  	-0.040658 
2692.949048  	-0.040694 
2694.380706  	-0.040611 
2695.812364  	-0.040700 
2697.244022  	-0.040613 
2698.675680  	-0.040551 
2700.107339  	-0.040694 
2701.538997  	-0.040531 
2702.970655  	-0.040421 
2704.402313  	-0.040553 
2705.833971  	-0.040527 
2707.265630  	-0.040506 
2708.697288  	-0.040476 
2710.128946  	-0.040393 
2711.560604  	-0.040287 
2712.992262  	-0.040023 
2714.423920  	-0.039993 
2715.855579  	-0.040160 
2717.287237  	-0.040159 
2718.718895  	-0.040247 
2720.150553  	-0.040302 
2721.582211  	-0.040338 
2723.013870  	-0.040547 
2724.445528  	-0.040431 
2725.877186  	-0.040167 
2727.308844  	-0.040165 
2728.740502  	-0.040184 
2730.172160  	-0.040276 
2731.603819  	-0.040307 
2733.035477  	-0.040231 
2734.467135  	-0.040322 
2735.898793  	-0.040281 
2737.330451  	-0.040277 
2738.762110  	-0.040563 
2740.193768  	-0.040532 
2741.625426  	-0.040251 
2743.057084  	-0.040192 
2744.488742  	-0.040377 
2745.920401  	-0.040644 
2747.352059  	-0.040635 
2748.783717  	-0.040584 
2750.215375  	-0.040678 
2751.647033  	-0.040514 
2753.078691  	-0.040419 
2754.510350  	-0.040451 
2755.942008  	-0.040237 
2757.373666  	-0.040213 
2758.805324  	-0.040207 
2760.236982  	-0.039949 
2761.668641  	-0.040011 
2763.100299  	-0.040091 
2764.531957  	-0.039908 
2765.963615  	-0.039974 
2767.395273  	-0.040062 
2768.826931  	-0.039821 
2770.258590  	-0.039559 
2771.690248  	-0.039524 
2773.121906  	-0.039539 
2774.553564  	-0.039344 
2775.985222  	-0.039153 
2777.416881  	-0.039122 
2778.848539  	-0.039089 
2780.280197  	-0.039160 
2781.711855  	-0.039266 
2783.143513  	-0.039271 
2784.575172  	-0.039342 
2786.006830  	-0.039450 
2787.438488  	-0.039576 
2788.870146  	-0.039710 
2790.301804  	-0.039746 
2791.733462  	-0.039726 
2793.165121  	-0.039497 
2794.596779  	-0.039252 
2796.028437  	-0.039363 
2797.460095  	-0.039435 
2798.891753  	-0.039420 
2800.323412  	-0.039573 
2801.755070  	-0.039611 
2803.186728  	-0.039621 
2804.618386  	-0.039634 
2806.050044  	-0.039471 
2807.481703  	-0.039403 
2808.913361  	-0.039328 
2810.345019  	-0.039210 
2811.776677  	-0.039329 
2813.208335  	-0.039414 
2814.639993  	-0.039418 
2816.071652  	-0.039435 
2817.503310  	-0.039299 
2818.934968  	-0.039242 
2820.366626  	-0.039243 
2821.798284  	-0.039166 
2823.229943  	-0.039174 
2824.661601  	-0.039111 
2826.093259  	-0.039081 
2827.524917  	-0.039139 
2828.956575  	-0.038913 
2830.388233  	-0.038751 
2831.819892  	-0.038900 
2833.251550  	-0.038935 
2834.683208  	-0.038837 
2836.114866  	-0.038675 
2837.546524  	-0.038452 
2838.978183  	-0.038242 
2840.409841  	-0.038060 
2841.841499  	-0.038037 
2843.273157  	-0.037849 
2844.704815  	-0.037224 
2846.136474  	-0.036609 
2847.568132  	-0.036098 
2848.999790  	-0.035674 
2850.431448  	-0.035436 
2851.863106  	-0.035067 
2853.294764  	-0.034696 
2854.726423  	-0.034506 
2856.158081  	-0.034183 
2857.589739  	-0.033804 
2859.021397  	-0.033400 
2860.453055  	-0.032771 
2861.884714  	-0.031846 
2863.316372  	-0.030591 
2864.748030  	-0.029375 
2866.179688  	-0.028139 
2867.611346  	-0.026421 
2869.043005  	-0.024725 
2870.474663  	-0.023504 
2871.906321  	-0.022657 
2873.337979  	-0.022314 
2874.769637  	-0.022388 
2876.201295  	-0.022914 
2877.632954  	-0.024011 
2879.064612  	-0.025198 
2880.496270  	-0.026329 
2881.927928  	-0.027349 
2883.359586  	-0.027860 
2884.791245  	-0.028184 
2886.222903  	-0.028564 
2887.654561  	-0.028643 
2889.086219  	-0.028432 
2890.517877  	-0.028137 
2891.949535  	-0.028061 
2893.381194  	-0.028316 
2894.812852  	-0.028483 
2896.244510  	-0.028610 
2897.676168  	-0.028935 
2899.107826  	-0.029105 
2900.539485  	-0.029053 
2901.971143  	-0.028940 
2903.402801  	-0.028503 
2904.834459  	-0.027743 
2906.266117  	-0.027130 
2907.697776  	-0.026758 
2909.129434  	-0.026316 
2910.561092  	-0.025734 
2911.992750  	-0.025184 
2913.424408  	-0.024826 
2914.856066  	-0.024740 
2916.287725  	-0.024772 
2917.719383  	-0.024701 
2919.151041  	-0.024416 
2920.582699  	-0.023948 
2922.014357  	-0.023441 
2923.446016  	-0.022700 
2924.877674  	-0.021622 
2926.309332  	-0.020616 
2927.740990  	-0.019638 
2929.172648  	-0.018499 
2930.604306  	-0.017530 
2932.035965  	-0.016884 
2933.467623  	-0.016600 
2934.899281  	-0.016597 
2936.330939  	-0.016559 
2937.762597  	-0.016686 
2939.194256  	-0.017197 
2940.625914  	-0.017831 
2942.057572  	-0.018355 
2943.489230  	-0.018522 
2944.920888  	-0.018491 
2946.352547  	-0.018710 
2947.784205  	-0.018885 
2949.215863  	-0.018546 
2950.647521  	-0.017609 
2952.079179  	-0.016254 
2953.510837  	-0.014824 
2954.942496  	-0.012985 
2956.374154  	-0.010183 
2957.805812  	-0.006602 
2959.237470  	-0.002672 
2960.669128  	0.001270 
2962.100787  	0.005178 
2963.532445  	0.008890 
2964.964103  	0.011903 
2966.395761  	0.014050 
2967.827419  	0.014904 
2969.259078  	0.014300 
2970.690736  	0.013068 
2972.122394  	0.011218 
2973.554052  	0.008339 
2974.985710  	0.005099 
2976.417368  	0.001848 
2977.849027  	-0.001576 
2979.280685  	-0.005016 
2980.712343  	-0.008479 
2982.144001  	-0.011719 
2983.575659  	-0.014637 
2985.007318  	-0.017584 
2986.438976  	-0.020163 
2987.870634  	-0.022267 
2989.302292  	-0.024377 
2990.733950  	-0.026324 
2992.165608  	-0.028089 
2993.597267  	-0.029637 
2995.028925  	-0.030866 
2996.460583  	-0.032257 
2997.892241  	-0.033475 
2999.323899  	-0.034179 
3000.755558  	-0.034947 
3002.187216  	-0.035651 
3003.618874  	-0.036302 
3005.050532  	-0.037209 
3006.482190  	-0.037838 
3007.913849  	-0.038206 
3009.345507  	-0.038548 
3010.777165  	-0.038680 
3012.208823  	-0.038976 
3013.640481  	-0.039450 
3015.072139  	-0.039722 
3016.503798  	-0.039911 
3017.935456  	-0.039970 
3019.367114  	-0.039899 
3020.798772  	-0.039923 
3022.230430  	-0.039992 
3023.662089  	-0.039938 
3025.093747  	-0.039677 
3026.525405  	-0.039386 
3027.957063  	-0.038994 
3029.388721  	-0.038182 
3030.820380  	-0.037310 
3032.252038  	-0.036537 
3033.683696  	-0.035586 
3035.115354  	-0.034661 
3036.547012  	-0.033763 
3037.978670  	-0.032900 
3039.410329  	-0.032423 
3040.841987  	-0.032191 
3042.273645  	-0.032182 
3043.705303  	-0.032645 
3045.136961  	-0.033304 
3046.568620  	-0.033774 
3048.000278  	-0.033998 
3049.431936  	-0.034268 
3050.863594  	-0.034668 
3052.295252  	-0.034612 
3053.726910  	-0.034053 
3055.158569  	-0.033603 
3056.590227  	-0.033455 
3058.021885  	-0.033482 
3059.453543  	-0.033498 
3060.885201  	-0.033567 
3062.316860  	-0.033754 
3063.748518  	-0.033823 
3065.180176  	-0.034004 
3066.611834  	-0.034549 
3068.043492  	-0.035240 
3069.475151  	-0.035997 
3070.906809  	-0.036435 
3072.338467  	-0.036464 
3073.770125  	-0.036764 
3075.201783  	-0.037265 
3076.633441  	-0.037593 
3078.065100  	-0.037851 
3079.496758  	-0.038052 
3080.928416  	-0.038402 
3082.360074  	-0.038805 
3083.791732  	-0.038919 
3085.223391  	-0.039134 
3086.655049  	-0.039567 
3088.086707  	-0.039841 
3089.518365  	-0.039926 
3090.950023  	-0.040027 
3092.381682  	-0.040485 
3093.813340  	-0.041019 
3095.244998  	-0.041017 
3096.676656  	-0.040832 
3098.108314  	-0.040846 
3099.539972  	-0.040918 
3100.971631  	-0.040953 
3102.403289  	-0.040820 
3103.834947  	-0.040844 
3105.266605  	-0.041220 
3106.698263  	-0.041370 
3108.129922  	-0.041184 
3109.561580  	-0.041023 
3110.993238  	-0.041041 
3112.424896  	-0.041205 
3113.856554  	-0.041270 
3115.288212  	-0.041289 
3116.719871  	-0.041397 
3118.151529  	-0.041539 
3119.583187  	-0.041760 
3121.014845  	-0.041806 
3122.446503  	-0.041773 
3123.878162  	-0.041981 
3125.309820  	-0.042002 
3126.741478  	-0.042064 
3128.173136  	-0.042496 
3129.604794  	-0.042522 
3131.036453  	-0.042364 
3132.468111  	-0.042700 
3133.899769  	-0.043122 
3135.331427  	-0.043299 
3136.763085  	-0.043152 
3138.194743  	-0.042962 
3139.626402  	-0.043120 
3141.058060  	-0.043207 
3142.489718  	-0.043145 
3143.921376  	-0.043254 
3145.353034  	-0.043495 
3146.784693  	-0.043820 
3148.216351  	-0.043755 
3149.648009  	-0.043420 
3151.079667  	-0.043532 
3152.511325  	-0.043554 
3153.942983  	-0.043434 
3155.374642  	-0.043782 
3156.806300  	-0.043883 
3158.237958  	-0.043622 
3159.669616  	-0.043680 
3161.101274  	-0.043806 
3162.532933  	-0.043793 
3163.964591  	-0.043763 
3165.396249  	-0.043784 
3166.827907  	-0.043814 
3168.259565  	-0.043687 
3169.691224  	-0.043800 
3171.122882  	-0.044102 
3172.554540  	-0.043934 
3173.986198  	-0.043778 
3175.417856  	-0.044058 
3176.849514  	-0.044235 
3178.281173  	-0.044116 
3179.712831  	-0.043881 
3181.144489  	-0.043796 
3182.576147  	-0.043876 
3184.007805  	-0.043850 
3185.439464  	-0.043766 
3186.871122  	-0.043612 
3188.302780  	-0.043502 
3189.734438  	-0.043711 
3191.166096  	-0.043916 
3192.597755  	-0.044018 
3194.029413  	-0.044098 
3195.461071  	-0.043968 
3196.892729  	-0.043968 
3198.324387  	-0.043984 
3199.756045  	-0.043626 
3201.187704  	-0.043542 
3202.619362  	-0.043785 
3204.051020  	-0.043791 
3205.482678  	-0.043781 
3206.914336  	-0.043826 
3208.345995  	-0.043768 
3209.777653  	-0.043814 
3211.209311  	-0.044052 
3212.640969  	-0.044263 
3214.072627  	-0.044251 
3215.504285  	-0.044273 
3216.935944  	-0.044390 
3218.367602  	-0.044176 
3219.799260  	-0.043894 
3221.230918  	-0.043957 
3222.662576  	-0.044189 
3224.094235  	-0.044444 
3225.525893  	-0.044442 
3226.957551  	-0.044258 
3228.389209  	-0.044374 
3229.820867  	-0.044573 
3231.252526  	-0.044549 
3232.684184  	-0.044396 
3234.115842  	-0.044364 
3235.547500  	-0.044594 
3236.979158  	-0.044552 
3238.410816  	-0.044288 
3239.842475  	-0.044485 
3241.274133  	-0.044701 
3242.705791  	-0.044609 
3244.137449  	-0.044541 
3245.569107  	-0.044380 
3247.000766  	-0.044283 
3248.432424  	-0.044322 
3249.864082  	-0.044312 
3251.295740  	-0.044550 
3252.727398  	-0.044863 
3254.159057  	-0.044892 
3255.590715  	-0.044760 
3257.022373  	-0.044471 
3258.454031  	-0.044316 
3259.885689  	-0.044416 
3261.317347  	-0.044482 
3262.749006  	-0.044643 
3264.180664  	-0.044725 
3265.612322  	-0.044544 
3267.043980  	-0.044488 
3268.475638  	-0.044504 
3269.907297  	-0.044461 
3271.338955  	-0.044437 
3272.770613  	-0.044535 
3274.202271  	-0.044959 
3275.633929  	-0.045113 
3277.065587  	-0.044680 
3278.497246  	-0.044420 
3279.928904  	-0.044385 
3281.360562  	-0.044513 
3282.792220  	-0.044858 
3284.223878  	-0.044739 
3285.655537  	-0.044487 
3287.087195  	-0.044687 
3288.518853  	-0.044696 
3289.950511  	-0.044476 
3291.382169  	-0.044338 
3292.813828  	-0.044283 
3294.245486  	-0.044560 
3295.677144  	-0.044622 
3297.108802  	-0.044282 
3298.540460  	-0.044495 
3299.972118  	-0.044858 
3301.403777  	-0.044568 
3302.835435  	-0.044326 
3304.267093  	-0.044396 
3305.698751  	-0.044381 
3307.130409  	-0.044560 
3308.562068  	-0.044918 
3309.993726  	-0.045025 
3311.425384  	-0.045116 
3312.857042  	-0.045287 
3314.288700  	-0.045116 
3315.720359  	-0.044861 
3317.152017  	-0.044963 
3318.583675  	-0.045056 
3320.015333  	-0.044867 
3321.446991  	-0.044713 
3322.878649  	-0.044873 
3324.310308  	-0.045210 
3325.741966  	-0.045353 
3327.173624  	-0.045213 
3328.605282  	-0.045005 
3330.036940  	-0.044949 
3331.468599  	-0.045025 
3332.900257  	-0.044879 
3334.331915  	-0.044623 
3335.763573  	-0.044706 
3337.195231  	-0.044863 
3338.626889  	-0.044919 
3340.058548  	-0.045153 
3341.490206  	-0.045301 
3342.921864  	-0.045103 
3344.353522  	-0.044874 
3345.785180  	-0.044994 
3347.216839  	-0.045411 
3348.648497  	-0.045519 
3350.080155  	-0.045097 
3351.511813  	-0.044724 
3352.943471  	-0.044817 
3354.375130  	-0.045180 
3355.806788  	-0.045320 
3357.238446  	-0.045174 
3358.670104  	-0.045152 
3360.101762  	-0.045267 
3361.533420  	-0.045315 
3362.965079  	-0.045175 
3364.396737  	-0.045011 
3365.828395  	-0.045311 
3367.260053  	-0.045584 
3368.691711  	-0.045243 
3370.123370  	-0.045071 
3371.555028  	-0.045372 
3372.986686  	-0.045700 
3374.418344  	-0.045802 
3375.850002  	-0.045428 
3377.281660  	-0.045138 
3378.713319  	-0.045357 
3380.144977  	-0.045525 
3381.576635  	-0.045523 
3383.008293  	-0.045228 
3384.439951  	-0.044918 
3385.871610  	-0.045418 
3387.303268  	-0.045824 
3388.734926  	-0.045540 
3390.166584  	-0.045485 
3391.598242  	-0.045344 
3393.029901  	-0.044919 
3394.461559  	-0.044872 
3395.893217  	-0.044938 
3397.324875  	-0.045021 
3398.756533  	-0.045160 
3400.188191  	-0.045180 
3401.619850  	-0.045322 
3403.051508  	-0.045268 
3404.483166  	-0.044897 
3405.914824  	-0.044802 
3407.346482  	-0.044997 
3408.778141  	-0.045334 
3410.209799  	-0.045500 
3411.641457  	-0.045346 
3413.073115  	-0.045385 
3414.504773  	-0.045474 
3415.936432  	-0.045584 
3417.368090  	-0.045902 
3418.799748  	-0.045630 
3420.231406  	-0.045128 
3421.663064  	-0.045287 
3423.094722  	-0.045337 
3424.526381  	-0.045148 
3425.958039  	-0.045227 
3427.389697  	-0.045328 
3428.821355  	-0.045413 
3430.253013  	-0.045469 
3431.684672  	-0.045495 
3433.116330  	-0.045537 
3434.547988  	-0.045378 
3435.979646  	-0.045376 
3437.411304  	-0.045635 
3438.842962  	-0.045639 
3440.274621  	-0.045489 
3441.706279  	-0.045256 
3443.137937  	-0.044978 
3444.569595  	-0.045053 
3446.001253  	-0.045334 
3447.432912  	-0.045635 
3448.864570  	-0.045716 
3450.296228  	-0.045451 
3451.727886  	-0.045282 
3453.159544  	-0.045056 
3454.591203  	-0.044779 
3456.022861  	-0.045076 
3457.454519  	-0.045328 
3458.886177  	-0.045019 
3460.317835  	-0.044934 
3461.749493  	-0.045180 
3463.181152  	-0.045295 
3464.612810  	-0.045301 
3466.044468  	-0.045336 
3467.476126  	-0.045321 
3468.907784  	-0.045134 
3470.339443  	-0.045016 
3471.771101  	-0.044993 
3473.202759  	-0.044821 
3474.634417  	-0.044779 
3476.066075  	-0.044897 
3477.497734  	-0.044899 
3478.929392  	-0.044864 
3480.361050  	-0.044656 
3481.792708  	-0.044460 
3483.224366  	-0.044711 
3484.656024  	-0.044993 
3486.087683  	-0.045109 
3487.519341  	-0.045288 
3488.950999  	-0.045285 
3490.382657  	-0.044986 
3491.814315  	-0.044859 
3493.245974  	-0.045196 
3494.677632  	-0.045404 
3496.109290  	-0.045115 
3497.540948  	-0.044909 
3498.972606  	-0.044728 
3500.404264  	-0.044450 
3501.835923  	-0.044573 
3503.267581  	-0.044674 
3504.699239  	-0.044426 
3506.130897  	-0.044340 
3507.562555  	-0.044352 
3508.994214  	-0.044435 
3510.425872  	-0.044389 
3511.857530  	-0.044098 
3513.289188  	-0.044250 
3514.720846  	-0.044449 
3516.152505  	-0.044147 
3517.584163  	-0.044103 
3519.015821  	-0.044243 
3520.447479  	-0.043914 
3521.879137  	-0.043413 
3523.310795  	-0.043360 
3524.742454  	-0.043810 
3526.174112  	-0.043704 
3527.605770  	-0.043091 
3529.037428  	-0.043180 
3530.469086  	-0.043608 
3531.900745  	-0.043872 
3533.332403  	-0.044053 
3534.764061  	-0.043764 
3536.195719  	-0.043596 
3537.627377  	-0.043831 
3539.059035  	-0.043740 
3540.490694  	-0.043776 
3541.922352  	-0.043937 
3543.354010  	-0.043736 
3544.785668  	-0.043801 
3546.217326  	-0.044137 
3547.648985  	-0.044311 
3549.080643  	-0.044473 
3550.512301  	-0.044468 
3551.943959  	-0.044381 
3553.375617  	-0.044335 
3554.807276  	-0.044320 
3556.238934  	-0.044376 
3557.670592  	-0.044282 
3559.102250  	-0.044350 
3560.533908  	-0.044730 
3561.965566  	-0.044888 
3563.397225  	-0.044842 
3564.828883  	-0.044177 
3566.260541  	-0.043034 
3567.692199  	-0.043418 
3569.123857  	-0.044396 
3570.555516  	-0.044356 
3571.987174  	-0.044608 
3573.418832  	-0.044656 
3574.850490  	-0.044056 
3576.282148  	-0.044127 
3577.713807  	-0.044935 
3579.145465  	-0.045470 
3580.577123  	-0.045201 
3582.008781  	-0.044585 
3583.440439  	-0.044479 
3584.872097  	-0.044222 
3586.303756  	-0.043395 
3587.735414  	-0.043565 
3589.167072  	-0.044992 
3590.598730  	-0.045489 
3592.030388  	-0.045182 
3593.462047  	-0.044662 
3594.893705  	-0.044395 
3596.325363  	-0.044689 
3597.757021  	-0.044995 
3599.188679  	-0.044939 
3600.620337  	-0.045077 
3602.051996  	-0.045518 
3603.483654  	-0.045587 
3604.915312  	-0.045623 
3606.346970  	-0.045548 
3607.778628  	-0.044820 
3609.210287  	-0.045107 
3610.641945  	-0.046128 
3612.073603  	-0.045369 
3613.505261  	-0.044528 
3614.936919  	-0.045213 
3616.368578  	-0.045008 
3617.800236  	-0.043943 
3619.231894  	-0.044080 
3620.663552  	-0.045521 
3622.095210  	-0.046004 
3623.526868  	-0.045566 
3624.958527  	-0.045437 
3626.390185  	-0.044979 
3627.821843  	-0.043272 
3629.253501  	-0.042820 
3630.685159  	-0.045335 
3632.116818  	-0.045571 
3633.548476  	-0.045109 
3634.980134  	-0.045175 
3636.411792  	-0.045449 
3637.843450  	-0.045966 
3639.275109  	-0.046282 
3640.706767  	-0.045934 
3642.138425  	-0.045682 
3643.570083  	-0.045776 
3645.001741  	-0.045543 
3646.433399  	-0.044704 
3647.865058  	-0.043639 
3649.296716  	-0.042949 
3650.728374  	-0.043668 
3652.160032  	-0.045946 
3653.591690  	-0.046106 
3655.023349  	-0.044714 
3656.455007  	-0.044382 
3657.886665  	-0.045347 
3659.318323  	-0.045274 
3660.749981  	-0.045147 
3662.181639  	-0.045427 
3663.613298  	-0.045630 
3665.044956  	-0.045626 
3666.476614  	-0.045143 
3667.908272  	-0.044254 
3669.339930  	-0.043443 
3670.771589  	-0.043990 
3672.203247  	-0.044617 
3673.634905  	-0.043266 
3675.066563  	-0.042072 
3676.498221  	-0.044404 
3677.929880  	-0.045121 
3679.361538  	-0.044973 
3680.793196  	-0.045645 
3682.224854  	-0.045431 
3683.656512  	-0.045257 
3685.088170  	-0.045299 
3686.519829  	-0.044300 
3687.951487  	-0.043888 
3689.383145  	-0.045097 
3690.814803  	-0.045360 
3692.246461  	-0.045685 
3693.678120  	-0.046147 
3695.109778  	-0.045666 
3696.541436  	-0.045344 
3697.973094  	-0.045422 
3699.404752  	-0.044957 
3700.836411  	-0.044543 
3702.268069  	-0.045212 
3703.699727  	-0.046019 
3705.131385  	-0.045976 
3706.563043  	-0.045575 
3707.994701  	-0.045182 
3709.426360  	-0.044903 
3710.858018  	-0.044560 
3712.289676  	-0.044637 
3713.721334  	-0.046219 
3715.152992  	-0.047236 
3716.584651  	-0.046551 
3718.016309  	-0.045848 
3719.447967  	-0.045974 
3720.879625  	-0.045494 
3722.311283  	-0.044634 
3723.742941  	-0.044780 
3725.174600  	-0.045135 
3726.606258  	-0.045125 
3728.037916  	-0.045354 
3729.469574  	-0.045368 
3730.901232  	-0.045079 
3732.332891  	-0.045122 
3733.764549  	-0.044519 
3735.196207  	-0.043060 
3736.627865  	-0.044286 
3738.059523  	-0.046289 
3739.491182  	-0.046231 
3740.922840  	-0.046593 
3742.354498  	-0.046213 
3743.786156  	-0.044109 
3745.217814  	-0.044805 
3746.649472  	-0.046656 
3748.081131  	-0.045428 
3749.512789  	-0.045039 
3750.944447  	-0.045935 
3752.376105  	-0.046128 
3753.807763  	-0.046843 
3755.239422  	-0.046698 
3756.671080  	-0.046422 
3758.102738  	-0.046889 
3759.534396  	-0.046704 
3760.966054  	-0.046821 
3762.397712  	-0.047345 
3763.829371  	-0.046627 
3765.261029  	-0.045982 
3766.692687  	-0.046366 
3768.124345  	-0.046349 
3769.556003  	-0.046392 
3770.987662  	-0.046977 
3772.419320  	-0.047166 
3773.850978  	-0.047092 
3775.282636  	-0.047051 
3776.714294  	-0.047030 
3778.145953  	-0.046668 
3779.577611  	-0.046273 
3781.009269  	-0.046708 
3782.440927  	-0.046732 
3783.872585  	-0.046119 
3785.304243  	-0.046056 
3786.735902  	-0.046320 
3788.167560  	-0.046326 
3789.599218  	-0.046372 
3791.030876  	-0.046479 
3792.462534  	-0.046921 
3793.894193  	-0.047219 
3795.325851  	-0.046552 
3796.757509  	-0.045726 
3798.189167  	-0.045716 
3799.620825  	-0.045286 
3801.052484  	-0.044456 
3802.484142  	-0.045730 
3803.915800  	-0.046855 
3805.347458  	-0.045715 
3806.779116  	-0.045123 
3808.210774  	-0.046874 
3809.642433  	-0.046995 
3811.074091  	-0.046317 
3812.505749  	-0.046579 
3813.937407  	-0.046158 
3815.369065  	-0.045193 
3816.800724  	-0.046186 
3818.232382  	-0.046442 
3819.664040  	-0.044807 
3821.095698  	-0.044286 
3822.527356  	-0.046385 
3823.959014  	-0.046516 
3825.390673  	-0.045844 
3826.822331  	-0.046295 
3828.253989  	-0.046854 
3829.685647  	-0.046191 
3831.117305  	-0.045683 
3832.548964  	-0.046014 
3833.980622  	-0.046063 
3835.412280  	-0.045772 
3836.843938  	-0.045577 
3838.275596  	-0.045380 
3839.707255  	-0.045512 
3841.138913  	-0.045779 
3842.570571  	-0.045974 
3844.002229  	-0.046620 
3845.433887  	-0.047177 
3846.865545  	-0.046717 
3848.297204  	-0.045993 
3849.728862  	-0.045647 
3851.160520  	-0.044889 
3852.592178  	-0.043214 
3854.023836  	-0.043309 
3855.455495  	-0.045971 
3856.887153  	-0.046737 
3858.318811  	-0.046846 
3859.750469  	-0.046347 
3861.182127  	-0.045707 
3862.613786  	-0.045474 
3864.045444  	-0.044966 
3865.477102  	-0.045293 
3866.908760  	-0.046360 
3868.340418  	-0.045368 
3869.772076  	-0.044257 
3871.203735  	-0.046086 
3872.635393  	-0.046163 
3874.067051  	-0.045419 
3875.498709  	-0.046473 
3876.930367  	-0.046715 
3878.362026  	-0.045848 
3879.793684  	-0.045380 
3881.225342  	-0.045720 
3882.657000  	-0.046186 
3884.088658  	-0.045447 
3885.520316  	-0.044480 
3886.951975  	-0.045918 
3888.383633  	-0.046531 
3889.815291  	-0.045545 
3891.246949  	-0.045572 
3892.678607  	-0.046499 
3894.110266  	-0.046534 
3895.541924  	-0.046413 
3896.973582  	-0.045938 
3898.405240  	-0.045196 
3899.836898  	-0.044950 
3901.268557  	-0.044921 
3902.700215  	-0.044833 
3904.131873  	-0.045108 
3905.563531  	-0.045927 
3906.995189  	-0.046556 
3908.426847  	-0.046505 
3909.858506  	-0.046376 
3911.290164  	-0.046708 
3912.721822  	-0.047032 
3914.153480  	-0.046744 
3915.585138  	-0.046001 
3917.016797  	-0.045557 
3918.448455  	-0.045759 
3919.880113  	-0.045891 
3921.311771  	-0.046046 
3922.743429  	-0.046033 
3924.175088  	-0.045551 
3925.606746  	-0.045662 
3927.038404  	-0.046169 
3928.470062  	-0.045986 
3929.901720  	-0.045732 
3931.333378  	-0.045547 
3932.765037  	-0.045429 
3934.196695  	-0.046039 
3935.628353  	-0.046432 
3937.060011  	-0.046329 
3938.491669  	-0.046453 
3939.923328  	-0.046272 
3941.354986  	-0.045623 
3942.786644  	-0.045405 
3944.218302  	-0.045737 
3945.649960  	-0.045993 
3947.081618  	-0.046041 
3948.513277  	-0.046061 
3949.944935  	-0.046190 
3951.376593  	-0.046334 
3952.808251  	-0.046405 
3954.239909  	-0.046357 
3955.671568  	-0.046317 
3957.103226  	-0.046447 
3958.534884  	-0.046558 
3959.966542  	-0.046524 
3961.398200  	-0.046353 
3962.829859  	-0.046221 
3964.261517  	-0.046361 
3965.693175  	-0.046337 
3967.124833  	-0.046106 
3968.556491  	-0.046106 
3969.988149  	-0.045957 
3971.419808  	-0.045860 
3972.851466  	-0.046213 
3974.283124  	-0.046074 
3975.714782  	-0.045667 
3977.146440  	-0.045918 
3978.578099  	-0.046120 
3980.009757  	-0.046030 
3981.441415  	-0.046049 
3982.873073  	-0.045936 
3984.304731  	-0.045865 
3985.736389  	-0.046035 
3987.168048  	-0.046037 
3988.599706  	-0.045774 
3990.031364  	-0.045624 
3991.463022  	-0.045780 
3992.894680  	-0.045869 
3994.326339  	-0.045980 
3995.757997  	-0.046446 
3997.189655  	-0.046515 
3998.621313  	-0.046135 
4000.052971  	-0.046170 