##TITLE=No Description
##DATA TYPE=INFRARED SPECTRUM
##XUNITS=1/CM
##YUNITS=%T
399.432634  	10.277537 
400.864292  	10.821690 
402.295950  	9.826636 
403.727608  	10.633469 
405.159267  	14.063873 
406.590925  	17.102112 
408.022583  	17.768224 
409.454241  	17.090406 
410.885899  	16.254497 
412.317558  	16.040406 
413.749216  	17.568290 
415.180874  	18.343180 
416.612532  	16.752011 
418.044190  	16.362129 
419.475848  	18.327372 
420.907507  	17.436980 
422.339165  	16.769873 
423.770823  	17.555425 
425.202481  	17.371533 
426.634139  	16.626848 
428.065798  	17.873785 
429.497456  	18.837713 
430.929114  	16.566695 
432.360772  	14.274289 
433.792430  	14.871124 
435.224089  	15.860576 
436.655747  	15.319051 
438.087405  	14.623278 
439.519063  	15.184651 
440.950721  	15.880468 
442.382379  	14.859005 
443.814038  	13.748330 
445.245696  	14.921427 
446.677354  	16.274650 
448.109012  	16.204294 
449.540670  	15.660915 
450.972329  	15.129857 
452.403987  	14.292416 
453.835645  	13.819292 
455.267303  	13.911311 
456.698961  	13.950387 
458.130619  	13.737576 
459.562278  	13.854696 
460.993936  	14.040023 
462.425594  	14.337261 
463.857252  	15.030098 
465.288910  	15.597695 
466.720569  	15.355986 
468.152227  	14.562938 
469.583885  	14.421747 
471.015543  	15.007310 
472.447201  	14.989383 
473.878860  	14.159466 
475.310518  	14.084451 
476.742176  	14.249764 
478.173834  	13.712882 
479.605492  	13.154756 
481.037150  	13.334111 
482.468809  	14.060027 
483.900467  	14.325144 
485.332125  	13.481429 
486.763783  	12.664971 
488.195441  	12.663696 
489.627100  	12.504792 
491.058758  	12.026107 
492.490416  	12.140034 
493.922074  	12.628475 
495.353732  	12.951748 
496.785391  	13.245076 
498.217049  	13.274627 
499.648707  	12.863033 
501.080365  	13.037419 
502.512023  	13.786349 
503.943681  	13.630335 
505.375340  	13.289553 
506.806998  	13.643485 
508.238656  	13.696723 
509.670314  	13.378790 
511.101972  	13.315366 
512.533631  	13.159937 
513.965289  	12.862690 
515.396947  	12.617178 
516.828605  	12.439223 
518.260263  	12.538751 
519.691921  	12.517104 
521.123580  	12.222505 
522.555238  	12.104179 
523.986896  	12.008601 
525.418554  	12.076347 
526.850212  	12.463702 
528.281871  	12.337929 
529.713529  	11.787216 
531.145187  	11.709810 
532.576845  	11.954891 
534.008503  	11.940119 
535.440162  	11.809590 
536.871820  	11.814981 
538.303478  	11.850957 
539.735136  	11.710592 
541.166794  	11.475008 
542.598452  	11.392972 
544.030111  	11.477286 
545.461769  	11.562567 
546.893427  	11.672978 
548.325085  	11.916213 
549.756743  	11.974877 
551.188402  	11.711912 
552.620060  	11.778766 
554.051718  	12.312494 
555.483376  	12.636505 
556.915034  	12.861745 
558.346692  	13.331465 
559.778351  	13.727811 
561.210009  	14.144494 
562.641667  	14.709787 
564.073325  	15.050938 
565.504983  	15.462801 
566.936642  	16.188412 
568.368300  	16.484183 
569.799958  	16.181913 
571.231616  	15.771849 
572.663274  	15.312303 
574.094933  	14.963015 
575.526591  	14.861829 
576.958249  	14.745537 
578.389907  	14.717193 
579.821565  	14.979684 
581.253223  	15.095068 
582.684882  	14.860804 
584.116540  	14.670022 
585.548198  	14.572606 
586.979856  	14.465228 
588.411514  	14.449304 
589.843173  	14.458214 
591.274831  	14.388207 
592.706489  	14.367200 
594.138147  	14.384889 
595.569805  	14.291679 
597.001464  	14.166997 
598.433122  	14.207017 
599.864780  	14.343820 
601.296438  	14.299012 
602.728096  	14.105919 
604.159754  	14.072586 
605.591413  	14.167508 
607.023071  	14.104678 
608.454729  	13.973469 
609.886387  	13.990781 
611.318045  	14.009633 
612.749704  	13.950177 
614.181362  	13.990757 
615.613020  	14.084546 
617.044678  	14.078623 
618.476336  	13.969977 
619.907994  	13.776628 
621.339653  	13.649014 
622.771311  	13.709091 
624.202969  	13.702456 
625.634627  	13.551663 
627.066285  	13.525339 
628.497944  	13.587780 
629.929602  	13.550503 
631.361260  	13.478006 
632.792918  	13.504154 
634.224576  	13.650248 
635.656235  	13.793754 
637.087893  	13.841007 
638.519551  	13.838268 
639.951209  	13.767969 
641.382867  	13.648337 
642.814525  	13.613287 
644.246184  	13.623521 
645.677842  	13.638503 
647.109500  	13.680717 
648.541158  	13.580973 
649.972816  	13.407503 
651.404475  	13.447305 
652.836133  	13.538938 
654.267791  	13.485287 
655.699449  	13.445114 
657.131107  	13.444446 
658.562766  	13.444813 
659.994424  	13.430474 
661.426082  	13.313843 
662.857740  	13.244345 
664.289398  	13.282500 
665.721056  	13.177604 
667.152715  	13.000828 
668.584373  	13.095196 
670.016031  	13.127621 
671.447689  	13.057745 
672.879347  	13.033510 
674.311006  	12.992744 
675.742664  	12.957085 
677.174322  	12.920147 
678.605980  	12.916323 
680.037638  	12.986355 
681.469296  	12.927327 
682.900955  	12.834067 
684.332613  	12.882793 
685.764271  	12.812961 
687.195929  	12.696588 
688.627587  	12.708670 
690.059246  	12.597585 
691.490904  	12.527207 
692.922562  	12.669479 
694.354220  	12.644313 
695.785878  	12.468989 
697.217537  	12.414169 
698.649195  	12.337041 
700.080853  	12.152473 
701.512511  	12.019556 
702.944169  	12.001616 
704.375827  	12.040785 
705.807486  	12.075784 
707.239144  	12.083348 
708.670802  	12.040935 
710.102460  	11.990962 
711.534118  	11.936596 
712.965777  	11.797722 
714.397435  	11.677547 
715.829093  	11.596592 
717.260751  	11.372057 
718.692409  	11.039973 
720.124067  	10.668088 
721.555726  	10.282339 
722.987384  	10.005685 
724.419042  	9.828446 
725.850700  	9.929396 
727.282358  	10.661043 
728.714017  	11.885319 
730.145675  	13.394457 
731.577333  	15.286299 
733.008991  	17.501714 
734.440649  	19.649558 
735.872308  	21.027519 
737.303966  	21.254041 
738.735624  	20.666424 
740.167282  	19.696931 
741.598940  	18.637724 
743.030598  	17.764333 
744.462257  	17.141746 
745.893915  	16.645735 
747.325573  	16.152800 
748.757231  	15.716746 
750.188889  	15.518919 
751.620548  	15.462092 
753.052206  	15.301368 
754.483864  	15.033102 
755.915522  	14.817320 
757.347180  	14.801218 
758.778839  	14.865961 
760.210497  	14.776554 
761.642155  	14.656478 
763.073813  	14.678813 
764.505471  	14.745578 
765.937129  	14.794943 
767.368788  	14.876553 
768.800446  	15.031701 
770.232104  	15.255487 
771.663762  	15.523513 
773.095420  	15.802431 
774.527079  	15.996662 
775.958737  	16.091349 
777.390395  	16.094609 
778.822053  	15.967895 
780.253711  	15.858023 
781.685369  	15.840755 
783.117028  	15.776652 
784.548686  	15.675177 
785.980344  	15.548439 
787.412002  	15.360776 
788.843660  	15.204652 
790.275319  	15.072069 
791.706977  	14.934459 
793.138635  	14.797439 
794.570293  	14.613422 
796.001951  	14.504307 
797.433610  	14.463535 
798.865268  	14.288071 
800.296926  	14.038981 
801.728584  	13.771244 
803.160242  	13.494837 
804.591900  	13.354849 
806.023559  	13.253152 
807.455217  	13.095807 
808.886875  	12.982787 
810.318533  	12.908150 
811.750191  	12.951114 
813.181850  	13.089468 
814.613508  	13.150533 
816.045166  	13.256121 
817.476824  	13.486105 
818.908482  	13.654908 
820.340141  	13.679105 
821.771799  	13.604430 
823.203457  	13.482533 
824.635115  	13.297457 
826.066773  	13.170525 
827.498431  	13.334445 
828.930090  	13.703934 
830.361748  	14.239218 
831.793406  	15.015232 
833.225064  	15.752753 
834.656722  	16.366042 
836.088381  	16.978026 
837.520039  	17.405240 
838.951697  	17.612694 
840.383355  	17.756667 
841.815013  	17.845270 
843.246671  	17.940883 
844.678330  	18.091618 
846.109988  	18.236811 
847.541646  	18.375506 
848.973304  	18.528065 
850.404962  	18.684829 
851.836621  	18.772812 
853.268279  	18.728871 
854.699937  	18.623393 
856.131595  	18.498691 
857.563253  	18.305013 
858.994912  	18.056019 
860.426570  	17.843846 
861.858228  	17.674902 
863.289886  	17.401643 
864.721544  	17.027155 
866.153202  	16.742164 
867.584861  	16.502511 
869.016519  	16.176128 
870.448177  	15.875859 
871.879835  	15.813551 
873.311493  	16.052968 
874.743152  	16.337959 
876.174810  	16.468813 
877.606468  	16.588529 
879.038126  	16.665892 
880.469784  	16.580911 
881.901443  	16.470891 
883.333101  	16.416561 
884.764759  	16.424385 
886.196417  	16.499735 
887.628075  	16.652078 
889.059733  	17.036957 
890.491392  	17.607036 
891.923050  	18.103914 
893.354708  	18.420709 
894.786366  	18.494700 
896.218024  	18.383426 
897.649683  	18.244670 
899.081341  	18.063398 
900.512999  	17.832747 
901.944657  	17.610871 
903.376315  	17.406321 
904.807973  	17.241697 
906.239632  	17.088920 
907.671290  	16.937663 
909.102948  	16.790244 
910.534606  	16.619683 
911.966264  	16.518492 
913.397923  	16.439497 
914.829581  	16.287293 
916.261239  	16.246959 
917.692897  	16.273647 
919.124555  	16.184901 
920.556214  	16.124687 
921.987872  	16.103020 
923.419530  	16.033537 
924.851188  	16.001768 
926.282846  	15.948199 
927.714504  	15.820168 
929.146163  	15.713132 
930.577821  	15.636566 
932.009479  	15.584742 
933.441137  	15.587335 
934.872795  	15.643632 
936.304454  	15.682221 
937.736112  	15.665906 
939.167770  	15.707940 
940.599428  	15.793523 
942.031086  	15.810844 
943.462744  	15.823598 
944.894403  	15.871081 
946.326061  	15.923587 
947.757719  	15.940281 
949.189377  	15.859366 
950.621035  	15.773807 
952.052694  	15.723309 
953.484352  	15.635770 
954.916010  	15.589120 
956.347668  	15.556606 
957.779326  	15.474809 
959.210985  	15.457672 
960.642643  	15.475962 
962.074301  	15.477883 
963.505959  	15.497305 
964.937617  	15.461451 
966.369275  	15.393835 
967.800934  	15.357275 
969.232592  	15.322603 
970.664250  	15.282019 
972.095908  	15.189921 
973.527566  	15.098792 
974.959225  	15.063737 
976.390883  	14.954626 
977.822541  	14.822587 
979.254199  	14.750785 
980.685857  	14.627568 
982.117516  	14.491413 
983.549174  	14.365013 
984.980832  	14.193495 
986.412490  	14.049861 
987.844148  	13.903939 
989.275806  	13.744416 
990.707465  	13.652679 
992.139123  	13.563673 
993.570781  	13.465848 
995.002439  	13.386064 
996.434097  	13.242398 
997.865756  	13.008969 
999.297414  	12.693277 
1000.729072  	12.336632 
1002.160730  	12.023984 
1003.592388  	11.819933 
1005.024046  	11.808463 
1006.455705  	11.909148 
1007.887363  	11.964253 
1009.319021  	11.896147 
1010.750679  	11.534738 
1012.182337  	11.069536 
1013.613996  	11.368703 
1015.045654  	13.081747 
1016.477312  	15.823028 
1017.908970  	18.528534 
1019.340628  	20.534854 
1020.772287  	21.673781 
1022.203945  	21.935851 
1023.635603  	21.589459 
1025.067261  	20.970333 
1026.498919  	20.250760 
1027.930577  	19.579922 
1029.362236  	19.036483 
1030.793894  	18.595707 
1032.225552  	18.234012 
1033.657210  	17.857186 
1035.088868  	17.499094 
1036.520527  	17.277731 
1037.952185  	17.064371 
1039.383843  	16.791342 
1040.815501  	16.555186 
1042.247159  	16.349786 
1043.678818  	16.149306 
1045.110476  	15.936134 
1046.542134  	15.732194 
1047.973792  	15.555865 
1049.405450  	15.338582 
1050.837108  	15.138367 
1052.268767  	14.964878 
1053.700425  	14.744452 
1055.132083  	14.588888 
1056.563741  	14.445791 
1057.995399  	14.221654 
1059.427058  	14.033124 
1060.858716  	13.823579 
1062.290374  	13.626236 
1063.722032  	13.513828 
1065.153690  	13.268668 
1066.585348  	12.973626 
1068.017007  	12.788639 
1069.448665  	12.540455 
1070.880323  	12.236836 
1072.311981  	11.921949 
1073.743639  	11.539243 
1075.175298  	11.140598 
1076.606956  	10.764404 
1078.038614  	10.595968 
1079.470272  	10.875291 
1080.901930  	11.682292 
1082.333589  	12.825370 
1083.765247  	13.689741 
1085.196905  	14.006596 
1086.628563  	13.960111 
1088.060221  	13.602549 
1089.491879  	13.116095 
1090.923538  	12.651828 
1092.355196  	12.120402 
1093.786854  	11.703212 
1095.218512  	11.500100 
1096.650170  	11.389590 
1098.081829  	11.418181 
1099.513487  	11.602293 
1100.945145  	12.030745 
1102.376803  	12.680189 
1103.808461  	13.323421 
1105.240120  	13.945583 
1106.671778  	14.381894 
1108.103436  	14.487015 
1109.535094  	14.493224 
1110.966752  	14.429745 
1112.398410  	14.288608 
1113.830069  	14.251297 
1115.261727  	14.281007 
1116.693385  	14.374222 
1118.125043  	14.558026 
1119.556701  	14.743208 
1120.988360  	14.956859 
1122.420018  	15.166852 
1123.851676  	15.321813 
1125.283334  	15.396841 
1126.714992  	15.333583 
1128.146650  	15.244772 
1129.578309  	15.103609 
1131.009967  	14.787578 
1132.441625  	14.451793 
1133.873283  	14.078490 
1135.304941  	13.602512 
1136.736600  	13.180965 
1138.168258  	12.744691 
1139.599916  	12.282415 
1141.031574  	11.889647 
1142.463232  	11.468525 
1143.894891  	11.069111 
1145.326549  	10.682532 
1146.758207  	10.233021 
1148.189865  	9.851169 
1149.621523  	9.483220 
1151.053181  	9.099483 
1152.484840  	8.765243 
1153.916498  	8.384698 
1155.348156  	8.063357 
1156.779814  	7.864775 
1158.211472  	7.814409 
1159.643131  	8.200352 
1161.074789  	9.059407 
1162.506447  	10.397784 
1163.938105  	12.226675 
1165.369763  	14.252389 
1166.801421  	16.254254 
1168.233080  	17.778031 
1169.664738  	18.273550 
1171.096396  	17.723487 
1172.528054  	16.455535 
1173.959712  	14.906682 
1175.391371  	13.513189 
1176.823029  	12.363338 
1178.254687  	11.459250 
1179.686345  	10.760386 
1181.118003  	10.064667 
1182.549662  	9.418820 
1183.981320  	8.875284 
1185.412978  	8.529913 
1186.844636  	8.632419 
1188.276294  	9.096933 
1189.707952  	9.898605 
1191.139611  	11.066226 
1192.571269  	12.418439 
1194.002927  	13.978923 
1195.434585  	15.665141 
1196.866243  	17.339662 
1198.297902  	19.025789 
1199.729560  	20.561142 
1201.161218  	21.790696 
1202.592876  	22.532048 
1204.024534  	22.488657 
1205.456193  	21.616382 
1206.887851  	20.094684 
1208.319509  	18.199171 
1209.751167  	16.352209 
1211.182825  	14.754491 
1212.614483  	13.481355 
1214.046142  	12.687384 
1215.477800  	12.239317 
1216.909458  	12.082363 
1218.341116  	12.226640 
1219.772774  	12.553861 
1221.204433  	13.088268 
1222.636091  	13.697572 
1224.067749  	14.340861 
1225.499407  	15.144516 
1226.931065  	15.935488 
1228.362723  	16.689061 
1229.794382  	17.463984 
1231.226040  	18.145289 
1232.657698  	18.817955 
1234.089356  	19.492473 
1235.521014  	20.090417 
1236.952673  	20.682626 
1238.384331  	21.220039 
1239.815989  	21.708028 
1241.247647  	22.252175 
1242.679305  	22.851175 
1244.110964  	23.567199 
1245.542622  	24.441369 
1246.974280  	25.471659 
1248.405938  	26.664862 
1249.837596  	27.937187 
1251.269254  	29.290981 
1252.700913  	30.701564 
1254.132571  	32.049612 
1255.564229  	33.278471 
1256.995887  	34.258577 
1258.427545  	34.830394 
1259.859204  	34.922602 
1261.290862  	34.608635 
1262.722520  	34.073968 
1264.154178  	33.558120 
1265.585836  	33.323139 
1267.017495  	33.478939 
1268.449153  	33.994471 
1269.880811  	34.819189 
1271.312469  	35.839926 
1272.744127  	36.936587 
1274.175785  	38.028177 
1275.607444  	39.044908 
1277.039102  	40.042198 
1278.470760  	40.994382 
1279.902418  	41.837181 
1281.334076  	42.664687 
1282.765735  	43.424388 
1284.197393  	44.101042 
1285.629051  	44.758345 
1287.060709  	45.321642 
1288.492367  	45.888216 
1289.924025  	46.442883 
1291.355684  	46.886725 
1292.787342  	47.390968 
1294.219000  	47.881898 
1295.650658  	48.294368 
1297.082316  	48.704859 
1298.513975  	48.925714 
1299.945633  	48.987302 
1301.377291  	48.888170 
1302.808949  	48.546483 
1304.240607  	48.242500 
1305.672266  	47.951037 
1307.103924  	47.561110 
1308.535582  	47.252852 
1309.967240  	47.046887 
1311.398898  	47.031616 
1312.830556  	47.150493 
1314.262215  	47.109270 
1315.693873  	46.977234 
1317.125531  	46.714742 
1318.557189  	46.306795 
1319.988847  	46.006313 
1321.420506  	45.700675 
1322.852164  	45.417389 
1324.283822  	45.252791 
1325.715480  	45.027478 
1327.147138  	44.860262 
1328.578796  	44.737518 
1330.010455  	44.494694 
1331.442113  	44.286800 
1332.873771  	44.043546 
1334.305429  	43.725473 
1335.737087  	43.417793 
1337.168746  	43.025563 
1338.600404  	42.704383 
1340.032062  	42.437457 
1341.463720  	42.031749 
1342.895378  	41.687111 
1344.327037  	41.358905 
1345.758695  	41.002996 
1347.190353  	40.688442 
1348.622011  	40.304329 
1350.053669  	39.988522 
1351.485327  	39.753579 
1352.916986  	39.411850 
1354.348644  	39.089313 
1355.780302  	38.726223 
1357.211960  	38.218251 
1358.643618  	37.611104 
1360.075277  	36.789364 
1361.506935  	35.963826 
1362.938593  	35.613233 
1364.370251  	35.954879 
1365.801909  	36.713285 
1367.233568  	37.571757 
1368.665226  	38.141683 
1370.096884  	38.289714 
1371.528542  	38.094599 
1372.960200  	37.752878 
1374.391858  	37.488625 
1375.823517  	37.145636 
1377.255175  	36.756272 
1378.686833  	36.392324 
1380.118491  	35.966202 
1381.550149  	35.540517 
1382.981808  	35.122588 
1384.413466  	34.827531 
1385.845124  	34.845835 
1387.276782  	35.292895 
1388.708440  	35.839077 
1390.140098  	36.136109 
1391.571757  	36.240770 
1393.003415  	36.214917 
1394.435073  	36.125665 
1395.866731  	35.921067 
1397.298389  	35.606104 
1398.730048  	35.219482 
1400.161706  	34.787575 
1401.593364  	34.233367 
1403.025022  	33.539752 
1404.456680  	32.911645 
1405.888339  	32.391235 
1407.319997  	32.213763 
1408.751655  	32.849201 
1410.183313  	34.153656 
1411.614971  	35.744281 
1413.046629  	37.133456 
1414.478288  	37.964072 
1415.909946  	38.349325 
1417.341604  	38.424923 
1418.773262  	38.352888 
1420.204920  	38.283257 
1421.636579  	37.920037 
1423.068237  	37.527866 
1424.499895  	37.356186 
1425.931553  	37.060714 
1427.363211  	36.686738 
1428.794870  	36.431680 
1430.226528  	36.147413 
1431.658186  	35.916825 
1433.089844  	35.688803 
1434.521502  	35.376667 
1435.953160  	35.264558 
1437.384819  	35.244483 
1438.816477  	34.932879 
1440.248135  	34.628259 
1441.679793  	34.317086 
1443.111451  	34.052786 
1444.543110  	33.835755 
1445.974768  	33.585409 
1447.406426  	33.472661 
1448.838084  	33.444406 
1450.269742  	33.317587 
1451.701400  	33.325353 
1453.133059  	33.374290 
1454.564717  	33.206482 
1455.996375  	33.059095 
1457.428033  	33.090863 
1458.859691  	32.916545 
1460.291350  	32.674149 
1461.723008  	32.489336 
1463.154666  	32.400289 
1464.586324  	32.564295 
1466.017982  	32.858581 
1467.449641  	32.928366 
1468.881299  	32.930618 
1470.312957  	32.932482 
1471.744615  	32.988789 
1473.176273  	33.218543 
1474.607931  	33.222624 
1476.039590  	33.078347 
1477.471248  	33.005171 
1478.902906  	32.793084 
1480.334564  	32.419239 
1481.766222  	32.103593 
1483.197881  	31.690972 
1484.629539  	31.089600 
1486.061197  	30.548115 
1487.492855  	29.928364 
1488.924513  	29.226623 
1490.356172  	28.651192 
1491.787830  	27.775218 
1493.219488  	26.953114 
1494.651146  	26.315479 
1496.082804  	25.542143 
1497.514462  	24.930549 
1498.946121  	24.491276 
1500.377779  	24.158823 
1501.809437  	24.459978 
1503.241095  	25.055622 
1504.672753  	25.843751 
1506.104412  	27.893755 
1507.536070  	32.063413 
1508.967728  	34.890315 
1510.399386  	37.279917 
1511.831044  	39.532557 
1513.262702  	41.160731 
1514.694361  	42.077568 
1516.126019  	42.423929 
1517.557677  	42.533354 
1518.989335  	42.396882 
1520.420993  	41.981648 
1521.852652  	41.806865 
1523.284310  	41.499090 
1524.715968  	41.011135 
1526.147626  	40.831108 
1527.579284  	40.579924 
1529.010943  	40.231755 
1530.442601  	39.996100 
1531.874259  	39.653910 
1533.305917  	39.541906 
1534.737575  	39.598566 
1536.169233  	39.182343 
1537.600892  	38.843550 
1539.032550  	38.738672 
1540.464208  	38.719719 
1541.895866  	38.695918 
1543.327524  	38.474952 
1544.759183  	38.360885 
1546.190841  	38.304812 
1547.622499  	38.005648 
1549.054157  	37.831345 
1550.485815  	37.810665 
1551.917473  	37.560009 
1553.349132  	37.403595 
1554.780790  	37.401382 
1556.212448  	37.137911 
1557.644106  	36.859101 
1559.075764  	37.263617 
1560.507423  	37.454895 
1561.939081  	37.003257 
1563.370739  	36.742337 
1564.802397  	36.674124 
1566.234055  	36.533502 
1567.665714  	36.292977 
1569.097372  	36.231384 
1570.529030  	36.279717 
1571.960688  	36.064485 
1573.392346  	35.776529 
1574.824004  	35.583300 
1576.255663  	35.672711 
1577.687321  	35.774710 
1579.118979  	35.658981 
1580.550637  	35.644562 
1581.982295  	35.678336 
1583.413954  	35.554854 
1584.845612  	35.403153 
1586.277270  	35.252896 
1587.708928  	35.038952 
1589.140586  	34.880826 
1590.572245  	34.832427 
1592.003903  	34.849951 
1593.435561  	34.952968 
1594.867219  	35.062950 
1596.298877  	35.127033 
1597.730535  	35.158263 
1599.162194  	35.148964 
1600.593852  	35.160407 
1602.025510  	35.205263 
1603.457168  	35.292406 
1604.888826  	35.445673 
1606.320485  	35.580847 
1607.752143  	35.725901 
1609.183801  	35.861068 
1610.615459  	35.917901 
1612.047117  	35.971809 
1613.478775  	35.901313 
1614.910434  	35.729045 
1616.342092  	35.792508 
1617.773750  	36.012466 
1619.205408  	35.883857 
1620.637066  	35.688227 
1622.068725  	35.606337 
1623.500383  	35.670329 
1624.932041  	35.608521 
1626.363699  	35.437941 
1627.795357  	35.411941 
1629.227016  	35.395448 
1630.658674  	35.225526 
1632.090332  	35.051708 
1633.521990  	34.847885 
1634.953648  	34.728314 
1636.385306  	34.989944 
1637.816965  	34.917770 
1639.248623  	34.698794 
1640.680281  	34.644386 
1642.111939  	34.543341 
1643.543597  	34.348835 
1644.975256  	34.183134 
1646.406914  	34.153133 
1647.838572  	34.363491 
1649.270230  	34.204725 
1650.701888  	33.841951 
1652.133547  	33.690747 
1653.565205  	34.233687 
1654.996863  	34.135385 
1656.428521  	33.805535 
1657.860179  	33.605396 
1659.291837  	33.511824 
1660.723496  	33.373532 
1662.155154  	33.252093 
1663.586812  	33.291583 
1665.018470  	33.115885 
1666.450128  	32.849083 
1667.881787  	32.703195 
1669.313445  	32.614693 
1670.745103  	32.665235 
1672.176761  	32.539246 
1673.608419  	32.222627 
1675.040077  	32.258740 
1676.471736  	32.284097 
1677.903394  	31.890615 
1679.335052  	31.737464 
1680.766710  	31.586526 
1682.198368  	31.212132 
1683.630027  	31.155564 
1685.061685  	31.327361 
1686.493343  	30.938611 
1687.925001  	30.578081 
1689.356659  	30.237543 
1690.788318  	29.976019 
1692.219976  	29.535025 
1693.651634  	28.968314 
1695.083292  	28.668499 
1696.514950  	28.307273 
1697.946608  	27.598370 
1699.378267  	27.103936 
1700.809925  	26.595740 
1702.241583  	25.786015 
1703.673241  	24.954924 
1705.104899  	24.059527 
1706.536558  	23.266679 
1707.968216  	22.340249 
1709.399874  	21.561791 
1710.831532  	21.271580 
1712.263190  	20.999020 
1713.694849  	21.100625 
1715.126507  	21.890144 
1716.558165  	22.581018 
1717.989823  	24.078482 
1719.421481  	26.030467 
1720.853139  	27.057772 
1722.284798  	28.528880 
1723.716456  	30.438335 
1725.148114  	31.986734 
1726.579772  	33.718318 
1728.011430  	35.265841 
1729.443089  	36.506298 
1730.874747  	38.009641 
1732.306405  	38.720333 
1733.738063  	39.213375 
1735.169721  	40.330640 
1736.601379  	39.862916 
1738.033038  	39.403680 
1739.464696  	39.172290 
1740.896354  	38.432495 
1742.328012  	37.807255 
1743.759670  	37.194654 
1745.191329  	36.417223 
1746.622987  	35.791409 
1748.054645  	35.016756 
1749.486303  	34.187423 
1750.917961  	33.506310 
1752.349620  	32.570578 
1753.781278  	31.579219 
1755.212936  	30.673981 
1756.644594  	29.702849 
1758.076252  	28.516742 
1759.507910  	27.287430 
1760.939569  	26.275476 
1762.371227  	25.267406 
1763.802885  	24.295679 
1765.234543  	23.788068 
1766.666201  	23.511541 
1768.097860  	23.730869 
1769.529518  	24.411513 
1770.961176  	24.942342 
1772.392834  	26.383384 
1773.824492  	28.200327 
1775.256150  	29.245865 
1776.687809  	30.939433 
1778.119467  	32.640364 
1779.551125  	34.072817 
1780.982783  	36.355430 
1782.414441  	38.131492 
1783.846100  	39.572423 
1785.277758  	41.656718 
1786.709416  	43.114281 
1788.141074  	44.493624 
1789.572732  	45.900286 
1791.004391  	46.680281 
1792.436049  	48.104010 
1793.867707  	49.031061 
1795.299365  	49.049014 
1796.731023  	49.459312 
1798.162681  	49.398804 
1799.594340  	49.210787 
1801.025998  	49.354500 
1802.457656  	48.967266 
1803.889314  	48.765512 
1805.320972  	48.579055 
1806.752631  	48.087121 
1808.184289  	47.952537 
1809.615947  	47.684726 
1811.047605  	47.323633 
1812.479263  	47.277431 
1813.910922  	46.943276 
1815.342580  	46.743694 
1816.774238  	46.721550 
1818.205896  	46.377244 
1819.637554  	46.216669 
1821.069212  	46.064283 
1822.500871  	45.767986 
1823.932529  	45.688437 
1825.364187  	45.527288 
1826.795845  	45.379430 
1828.227503  	45.303361 
1829.659162  	45.195636 
1831.090820  	45.315147 
1832.522478  	45.120764 
1833.954136  	44.851325 
1835.385794  	44.896327 
1836.817452  	44.720151 
1838.249111  	44.613614 
1839.680769  	44.672481 
1841.112427  	44.348281 
1842.544085  	44.232293 
1843.975743  	44.426182 
1845.407402  	44.315549 
1846.839060  	44.254454 
1848.270718  	44.173528 
1849.702376  	44.117179 
1851.134034  	44.145802 
1852.565693  	43.993274 
1853.997351  	43.979360 
1855.429009  	43.992463 
1856.860667  	43.838548 
1858.292325  	43.840831 
1859.723983  	43.726778 
1861.155642  	43.641341 
1862.587300  	43.771380 
1864.018958  	43.630584 
1865.450616  	43.513566 
1866.882274  	43.481058 
1868.313933  	43.368358 
1869.745591  	43.637596 
1871.177249  	43.618578 
1872.608907  	43.338773 
1874.040565  	43.357014 
1875.472224  	43.258082 
1876.903882  	43.198507 
1878.335540  	43.286929 
1879.767198  	43.127631 
1881.198856  	43.145972 
1882.630514  	43.193307 
1884.062173  	43.062964 
1885.493831  	43.155436 
1886.925489  	43.055138 
1888.357147  	42.898016 
1889.788805  	43.090202 
1891.220464  	43.078626 
1892.652122  	42.994423 
1894.083780  	42.957948 
1895.515438  	42.894527 
1896.947096  	43.062444 
1898.378754  	43.073182 
1899.810413  	43.044659 
1901.242071  	43.218979 
1902.673729  	43.140215 
1904.105387  	43.170043 
1905.537045  	43.320671 
1906.968704  	43.174569 
1908.400362  	43.216831 
1909.832020  	43.291729 
1911.263678  	43.206086 
1912.695336  	43.274816 
1914.126995  	43.240211 
1915.558653  	43.304571 
1916.990311  	43.560336 
1918.421969  	43.721359 
1919.853627  	43.814067 
1921.285285  	43.538838 
1922.716944  	43.391907 
1924.148602  	43.822402 
1925.580260  	43.759244 
1927.011918  	43.609423 
1928.443576  	43.768936 
1929.875235  	43.687136 
1931.306893  	43.908513 
1932.738551  	44.061150 
1934.170209  	43.798273 
1935.601867  	44.022361 
1937.033525  	44.153900 
1938.465184  	44.061754 
1939.896842  	44.157221 
1941.328500  	43.952457 
1942.760158  	44.140339 
1944.191816  	44.467657 
1945.623475  	44.260428 
1947.055133  	44.570275 
1948.486791  	44.776538 
1949.918449  	44.634253 
1951.350107  	44.921674 
1952.781766  	44.876088 
1954.213424  	44.933386 
1955.645082  	45.185779 
1957.076740  	44.948553 
1958.508398  	45.438488 
1959.940056  	45.976497 
1961.371715  	45.768180 
1962.803373  	45.997654 
1964.235031  	45.871485 
1965.666689  	45.912982 
1967.098347  	46.800871 
1968.530006  	46.964128 
1969.961664  	47.057326 
1971.393322  	47.022502 
1972.824980  	46.634032 
1974.256638  	47.056915 
1975.688297  	47.116446 
1977.119955  	47.135695 
1978.551613  	47.485531 
1979.983271  	46.754926 
1981.414929  	46.594992 
1982.846587  	46.740692 
1984.278246  	46.185562 
1985.709904  	46.129821 
1987.141562  	45.932062 
1988.573220  	45.699500 
1990.004878  	46.035326 
1991.436537  	45.857374 
1992.868195  	46.029527 
1994.299853  	46.378594 
1995.731511  	45.872315 
1997.163169  	45.819622 
1998.594827  	45.888121 
2000.026486  	45.858532 
2001.458144  	46.294260 
2002.889802  	46.100437 
2004.321460  	46.227545 
2005.753118  	46.947797 
2007.184777  	46.808666 
2008.616435  	47.101266 
2010.048093  	47.107051 
2011.479751  	46.385850 
2012.911409  	46.849328 
2014.343068  	47.097368 
2015.774726  	46.882626 
2017.206384  	47.221108 
2018.638042  	47.054130 
2020.069700  	47.256133 
2021.501358  	47.492599 
2022.933017  	47.140329 
2024.364675  	47.585619 
2025.796333  	47.498102 
2027.227991  	47.067983 
2028.659649  	47.430626 
2030.091308  	46.904628 
2031.522966  	46.608161 
2032.954624  	47.162890 
2034.386282  	47.047799 
2035.817940  	46.961961 
2037.249599  	46.529990 
2038.681257  	46.071010 
2040.112915  	46.466582 
2041.544573  	46.279881 
2042.976231  	45.861571 
2044.407889  	45.766563 
2045.839548  	45.395489 
2047.271206  	45.551243 
2048.702864  	45.681768 
2050.134522  	45.130352 
2051.566180  	44.772588 
2052.997839  	44.495218 
2054.429497  	44.402248 
2055.861155  	44.411826 
2057.292813  	44.228172 
2058.724471  	44.400772 
2060.156129  	44.347996 
2061.587788  	43.943882 
2063.019446  	44.187666 
2064.451104  	44.469130 
2065.882762  	44.410600 
2067.314420  	44.308069 
2068.746079  	44.031643 
2070.177737  	44.107265 
2071.609395  	44.194595 
2073.041053  	43.871598 
2074.472711  	43.839937 
2075.904370  	43.815493 
2077.336028  	43.709916 
2078.767686  	43.810339 
2080.199344  	43.655576 
2081.631002  	43.595555 
2083.062660  	43.665237 
2084.494319  	43.422302 
2085.925977  	43.396693 
2087.357635  	43.504749 
2088.789293  	43.510086 
2090.220951  	43.644028 
2091.652610  	43.523850 
2093.084268  	43.367974 
2094.515926  	43.464208 
2095.947584  	43.434647 
2097.379242  	43.475234 
2098.810901  	43.523666 
2100.242559  	43.463432 
2101.674217  	43.571681 
2103.105875  	43.572807 
2104.537533  	43.583272 
2105.969191  	43.667254 
2107.400850  	43.500418 
2108.832508  	43.476145 
2110.264166  	43.462398 
2111.695824  	43.268785 
2113.127482  	43.356962 
2114.559141  	43.440033 
2115.990799  	43.427737 
2117.422457  	43.419727 
2118.854115  	43.198322 
2120.285773  	43.330934 
2121.717431  	43.657365 
2123.149090  	43.568884 
2124.580748  	43.653744 
2126.012406  	43.805249 
2127.444064  	43.772667 
2128.875722  	43.985043 
2130.307381  	44.032469 
2131.739039  	43.953832 
2133.170697  	44.062796 
2134.602355  	44.091184 
2136.034013  	44.446118 
2137.465672  	44.837769 
2138.897330  	44.832965 
2140.328988  	45.017772 
2141.760646  	45.045944 
2143.192304  	44.958411 
2144.623962  	45.080302 
2146.055621  	45.091252 
2147.487279  	45.575496 
2148.918937  	46.007797 
2150.350595  	45.772343 
2151.782253  	46.176122 
2153.213912  	46.812925 
2154.645570  	47.016599 
2156.077228  	47.405268 
2157.508886  	47.764124 
2158.940544  	48.265550 
2160.372202  	48.011140 
2161.803861  	47.093632 
2163.235519  	47.137339 
2164.667177  	47.120170 
2166.098835  	46.939738 
2167.530493  	46.990605 
2168.962152  	46.463332 
2170.393810  	46.295129 
2171.825468  	46.268171 
2173.257126  	45.723973 
2174.688784  	45.894922 
2176.120443  	46.112975 
2177.552101  	45.888421 
2178.983759  	46.084144 
2180.415417  	46.042657 
2181.847075  	46.100530 
2183.278733  	46.215553 
2184.710392  	45.604500 
2186.142050  	45.522617 
2187.573708  	45.557653 
2189.005366  	44.953251 
2190.437024  	44.939995 
2191.868683  	45.189388 
2193.300341  	45.167877 
2194.731999  	45.140154 
2196.163657  	44.865034 
2197.595315  	44.846564 
2199.026974  	45.003739 
2200.458632  	44.833079 
2201.890290  	44.783734 
2203.321948  	44.762765 
2204.753606  	44.758941 
2206.185264  	44.817305 
2207.616923  	44.650122 
2209.048581  	44.717892 
2210.480239  	44.762781 
2211.911897  	44.590847 
2213.343555  	44.778082 
2214.775214  	44.621435 
2216.206872  	44.233809 
2217.638530  	44.414030 
2219.070188  	44.423814 
2220.501846  	44.262370 
2221.933504  	44.337221 
2223.365163  	44.347549 
2224.796821  	44.442343 
2226.228479  	44.374717 
2227.660137  	44.194234 
2229.091795  	44.344397 
2230.523454  	44.368145 
2231.955112  	44.379305 
2233.386770  	44.472090 
2234.818428  	44.206015 
2236.250086  	44.090669 
2237.681745  	44.139264 
2239.113403  	44.000189 
2240.545061  	44.026928 
2241.976719  	44.052730 
2243.408377  	43.973292 
2244.840035  	43.956033 
2246.271694  	43.937732 
2247.703352  	44.022029 
2249.135010  	43.912601 
2250.566668  	43.762479 
2251.998326  	44.001824 
2253.429985  	43.950034 
2254.861643  	43.753997 
2256.293301  	43.924357 
2257.724959  	43.777086 
2259.156617  	43.565520 
2260.588276  	43.690750 
2262.019934  	43.664690 
2263.451592  	43.674055 
2264.883250  	43.776250 
2266.314908  	43.777494 
2267.746566  	43.912723 
2269.178225  	43.955260 
2270.609883  	43.765272 
2272.041541  	43.519694 
2273.473199  	43.332180 
2274.904857  	43.448311 
2276.336516  	43.577165 
2277.768174  	43.464032 
2279.199832  	43.450653 
2280.631490  	43.469150 
2282.063148  	43.422604 
2283.494806  	43.396179 
2284.926465  	43.282488 
2286.358123  	43.227551 
2287.789781  	43.277941 
2289.221439  	43.295571 
2290.653097  	43.286198 
2292.084756  	43.161565 
2293.516414  	43.066624 
2294.948072  	43.129915 
2296.379730  	43.107146 
2297.811388  	43.072524 
2299.243047  	43.117407 
2300.674705  	43.046820 
2302.106363  	42.958060 
2303.538021  	42.963197 
2304.969679  	42.977381 
2306.401337  	42.941550 
2307.832996  	42.856955 
2309.264654  	42.836668 
2310.696312  	42.837359 
2312.127970  	42.779897 
2313.559628  	42.762831 
2314.991287  	42.748332 
2316.422945  	42.778114 
2317.854603  	42.839061 
2319.286261  	42.683812 
2320.717919  	42.510840 
2322.149577  	42.548200 
2323.581236  	42.588265 
2325.012894  	42.575695 
2326.444552  	42.506944 
2327.876210  	42.421293 
2329.307868  	42.441515 
2330.739527  	42.457081 
2332.171185  	42.437418 
2333.602843  	42.436993 
2335.034501  	42.440605 
2336.466159  	42.513729 
2337.897818  	42.527679 
2339.329476  	42.502500 
2340.761134  	42.594103 
2342.192792  	42.560474 
2343.624450  	42.487287 
2345.056108  	42.617701 
2346.487767  	42.737259 
2347.919425  	42.771904 
2349.351083  	42.699990 
2350.782741  	42.515788 
2352.214399  	42.429434 
2353.646058  	42.429530 
2355.077716  	42.440373 
2356.509374  	42.500175 
2357.941032  	42.392956 
2359.372690  	42.354335 
2360.804349  	42.486054 
2362.236007  	42.446558 
2363.667665  	42.514174 
2365.099323  	42.665824 
2366.530981  	42.606943 
2367.962639  	42.587317 
2369.394298  	42.615521 
2370.825956  	42.700976 
2372.257614  	42.884092 
2373.689272  	42.917033 
2375.120930  	42.906851 
2376.552589  	42.965237 
2377.984247  	43.012418 
2379.415905  	43.096485 
2380.847563  	43.147932 
2382.279221  	43.192259 
2383.710879  	43.282921 
2385.142538  	43.284821 
2386.574196  	43.277659 
2388.005854  	43.312096 
2389.437512  	43.304340 
2390.869170  	43.356024 
2392.300829  	43.396144 
2393.732487  	43.358639 
2395.164145  	43.396811 
2396.595803  	43.444472 
2398.027461  	43.464772 
2399.459120  	43.518358 
2400.890778  	43.538320 
2402.322436  	43.548746 
2403.754094  	43.546555 
2405.185752  	43.563776 
2406.617410  	43.665140 
2408.049069  	43.667730 
2409.480727  	43.590489 
2410.912385  	43.608053 
2412.344043  	43.638991 
2413.775701  	43.640653 
2415.207360  	43.588414 
2416.639018  	43.531811 
2418.070676  	43.636842 
2419.502334  	43.754783 
2420.933992  	43.740673 
2422.365651  	43.709924 
2423.797309  	43.715987 
2425.228967  	43.771309 
2426.660625  	43.801507 
2428.092283  	43.779391 
2429.523941  	43.770158 
2430.955600  	43.701478 
2432.387258  	43.687980 
2433.818916  	43.822696 
2435.250574  	43.890257 
2436.682232  	43.905063 
2438.113891  	43.925048 
2439.545549  	43.899067 
2440.977207  	43.897462 
2442.408865  	43.833567 
2443.840523  	43.763151 
2445.272181  	43.838847 
2446.703840  	43.864785 
2448.135498  	43.856403 
2449.567156  	43.944934 
2450.998814  	43.991071 
2452.430472  	43.986314 
2453.862131  	43.967740 
2455.293789  	43.988876 
2456.725447  	44.067056 
2458.157105  	44.018569 
2459.588763  	43.967293 
2461.020422  	44.025439 
2462.452080  	43.972992 
2463.883738  	43.951569 
2465.315396  	44.087587 
2466.747054  	44.137190 
2468.178712  	44.078072 
2469.610371  	44.026859 
2471.042029  	44.039883 
2472.473687  	44.101308 
2473.905345  	44.137838 
2475.337003  	44.170107 
2476.768662  	44.147349 
2478.200320  	44.101722 
2479.631978  	44.153155 
2481.063636  	44.165580 
2482.495294  	44.168444 
2483.926953  	44.246136 
2485.358611  	44.212606 
2486.790269  	44.154791 
2488.221927  	44.188091 
2489.653585  	44.237338 
2491.085243  	44.352303 
2492.516902  	44.423886 
2493.948560  	44.384971 
2495.380218  	44.331963 
2496.811876  	44.246773 
2498.243534  	44.272028 
2499.675193  	44.378364 
2501.106851  	44.349774 
2502.538509  	44.341346 
2503.970167  	44.369555 
2505.401825  	44.335087 
2506.833483  	44.364601 
2508.265142  	44.407947 
2509.696800  	44.447864 
2511.128458  	44.493412 
2512.560116  	44.444390 
2513.991774  	44.429341 
2515.423433  	44.442884 
2516.855091  	44.418980 
2518.286749  	44.468716 
2519.718407  	44.462591 
2521.150065  	44.404813 
2522.581724  	44.415025 
2524.013382  	44.394616 
2525.445040  	44.461819 
2526.876698  	44.593066 
2528.308356  	44.597382 
2529.740014  	44.609668 
2531.171673  	44.603801 
2532.603331  	44.556646 
2534.034989  	44.591620 
2535.466647  	44.594565 
2536.898305  	44.631753 
2538.329964  	44.704967 
2539.761622  	44.607960 
2541.193280  	44.524961 
2542.624938  	44.527163 
2544.056596  	44.503471 
2545.488254  	44.541376 
2546.919913  	44.598534 
2548.351571  	44.664373 
2549.783229  	44.700151 
2551.214887  	44.643593 
2552.646545  	44.726600 
2554.078204  	44.817151 
2555.509862  	44.707108 
2556.941520  	44.684218 
2558.373178  	44.716674 
2559.804836  	44.678826 
2561.236495  	44.698273 
2562.668153  	44.707568 
2564.099811  	44.725983 
2565.531469  	44.720877 
2566.963127  	44.611747 
2568.394785  	44.619477 
2569.826444  	44.677534 
2571.258102  	44.663196 
2572.689760  	44.717915 
2574.121418  	44.728762 
2575.553076  	44.727510 
2576.984735  	44.806938 
2578.416393  	44.782138 
2579.848051  	44.772465 
2581.279709  	44.836481 
2582.711367  	44.810101 
2584.143026  	44.818708 
2585.574684  	44.830486 
2587.006342  	44.758548 
2588.438000  	44.785147 
2589.869658  	44.871599 
2591.301316  	44.882949 
2592.732975  	44.836315 
2594.164633  	44.794067 
2595.596291  	44.826984 
2597.027949  	44.850183 
2598.459607  	44.826588 
2599.891266  	44.857997 
2601.322924  	44.903920 
2602.754582  	44.922053 
2604.186240  	44.892058 
2605.617898  	44.811794 
2607.049556  	44.816474 
2608.481215  	44.870878 
2609.912873  	44.875409 
2611.344531  	44.920192 
2612.776189  	44.959718 
2614.207847  	44.907189 
2615.639506  	44.886595 
2617.071164  	44.955415 
2618.502822  	44.990076 
2619.934480  	44.932229 
2621.366138  	44.888303 
2622.797797  	44.907519 
2624.229455  	44.927184 
2625.661113  	44.936998 
2627.092771  	44.936982 
2628.524429  	44.943367 
2629.956087  	44.966133 
2631.387746  	44.950582 
2632.819404  	44.953773 
2634.251062  	44.993161 
2635.682720  	44.979055 
2637.114378  	44.986183 
2638.546037  	45.018975 
2639.977695  	45.000387 
2641.409353  	45.011773 
2642.841011  	45.017544 
2644.272669  	44.982397 
2645.704328  	45.003650 
2647.135986  	45.014067 
2648.567644  	44.987601 
2649.999302  	44.989654 
2651.430960  	44.970963 
2652.862618  	44.959706 
2654.294277  	44.989359 
2655.725935  	45.010960 
2657.157593  	45.031242 
2658.589251  	45.031506 
2660.020909  	45.025858 
2661.452568  	45.044285 
2662.884226  	45.024184 
2664.315884  	45.007750 
2665.747542  	45.051371 
2667.179200  	45.071667 
2668.610858  	45.046426 
2670.042517  	45.020404 
2671.474175  	45.025159 
2672.905833  	45.061487 
2674.337491  	45.087513 
2675.769149  	45.106769 
2677.200808  	45.114086 
2678.632466  	45.110280 
2680.064124  	45.147406 
2681.495782  	45.165549 
2682.927440  	45.128457 
2684.359099  	45.121724 
2685.790757  	45.140621 
2687.222415  	45.160710 
2688.654073  	45.194074 
2690.085731  	45.212800 
2691.517389  	45.207945 
2692.949048  	45.187304 
2694.380706  	45.188239 
2695.812364  	45.214001 
2697.244022  	45.215669 
2698.675680  	45.232033 
2700.107339  	45.246930 
2701.538997  	45.223334 
2702.970655  	45.250683 
2704.402313  	45.273183 
2705.833971  	45.224813 
2707.265630  	45.211321 
2708.697288  	45.225935 
2710.128946  	45.250181 
2711.560604  	45.288383 
2712.992262  	45.279914 
2714.423920  	45.298160 
2715.855579  	45.339098 
2717.287237  	45.314478 
2718.718895  	45.322903 
2720.150553  	45.353051 
2721.582211  	45.334314 
2723.013870  	45.356512 
2724.445528  	45.397357 
2725.877186  	45.389594 
2727.308844  	45.364428 
2728.740502  	45.356688 
2730.172160  	45.381769 
2731.603819  	45.382671 
2733.035477  	45.374802 
2734.467135  	45.415450 
2735.898793  	45.419354 
2737.330451  	45.411898 
2738.762110  	45.455955 
2740.193768  	45.460224 
2741.625426  	45.439904 
2743.057084  	45.441805 
2744.488742  	45.456432 
2745.920401  	45.490093 
2747.352059  	45.473642 
2748.783717  	45.450260 
2750.215375  	45.494559 
2751.647033  	45.509456 
2753.078691  	45.511155 
2754.510350  	45.531529 
2755.942008  	45.524922 
2757.373666  	45.561272 
2758.805324  	45.590949 
2760.236982  	45.550113 
2761.668641  	45.542756 
2763.100299  	45.542321 
2764.531957  	45.533606 
2765.963615  	45.573084 
2767.395273  	45.578109 
2768.826931  	45.554072 
2770.258590  	45.563814 
2771.690248  	45.552409 
2773.121906  	45.525622 
2774.553564  	45.537734 
2775.985222  	45.574987 
2777.416881  	45.574924 
2778.848539  	45.534019 
2780.280197  	45.544242 
2781.711855  	45.598656 
2783.143513  	45.628482 
2784.575172  	45.645039 
2786.006830  	45.652579 
2787.438488  	45.667294 
2788.870146  	45.678681 
2790.301804  	45.652132 
2791.733462  	45.654276 
2793.165121  	45.683524 
2794.596779  	45.683499 
2796.028437  	45.687624 
2797.460095  	45.682026 
2798.891753  	45.672548 
2800.323412  	45.697103 
2801.755070  	45.719349 
2803.186728  	45.747681 
2804.618386  	45.757938 
2806.050044  	45.704440 
2807.481703  	45.662228 
2808.913361  	45.660889 
2810.345019  	45.681074 
2811.776677  	45.704703 
2813.208335  	45.701973 
2814.639993  	45.720396 
2816.071652  	45.720798 
2817.503310  	45.665378 
2818.934968  	45.682323 
2820.366626  	45.727078 
2821.798284  	45.705461 
2823.229943  	45.700074 
2824.661601  	45.695080 
2826.093259  	45.663324 
2827.524917  	45.638967 
2828.956575  	45.603181 
2830.388233  	45.603315 
2831.819892  	45.652405 
2833.251550  	45.685818 
2834.683208  	45.673289 
2836.114866  	45.615213 
2837.546524  	45.595553 
2838.978183  	45.594824 
2840.409841  	45.528892 
2841.841499  	45.509204 
2843.273157  	45.521376 
2844.704815  	45.468474 
2846.136474  	45.434264 
2847.568132  	45.392008 
2848.999790  	45.343845 
2850.431448  	45.361788 
2851.863106  	45.330339 
2853.294764  	45.283730 
2854.726423  	45.307054 
2856.158081  	45.295624 
2857.589739  	45.279873 
2859.021397  	45.275728 
2860.453055  	45.225534 
2861.884714  	45.197387 
2863.316372  	45.164367 
2864.748030  	45.087761 
2866.179688  	45.011249 
2867.611346  	44.931094 
2869.043005  	44.904402 
2870.474663  	44.928917 
2871.906321  	44.952359 
2873.337979  	45.027375 
2874.769637  	45.102265 
2876.201295  	45.149557 
2877.632954  	45.251851 
2879.064612  	45.340412 
2880.496270  	45.379712 
2881.927928  	45.419049 
2883.359586  	45.430496 
2884.791245  	45.431686 
2886.222903  	45.426969 
2887.654561  	45.385677 
2889.086219  	45.352753 
2890.517877  	45.362616 
2891.949535  	45.389394 
2893.381194  	45.381969 
2894.812852  	45.383084 
2896.244510  	45.454606 
2897.676168  	45.486295 
2899.107826  	45.461984 
2900.539485  	45.474344 
2901.971143  	45.475932 
2903.402801  	45.477128 
2904.834459  	45.482008 
2906.266117  	45.426982 
2907.697776  	45.400174 
2909.129434  	45.407807 
2910.561092  	45.390324 
2911.992750  	45.408041 
2913.424408  	45.418986 
2914.856066  	45.404138 
2916.287725  	45.421805 
2917.719383  	45.413377 
2919.151041  	45.373225 
2920.582699  	45.337773 
2922.014357  	45.303623 
2923.446016  	45.276042 
2924.877674  	45.209600 
2926.309332  	45.144655 
2927.740990  	45.129575 
2929.172648  	45.092940 
2930.604306  	45.062333 
2932.035965  	45.058281 
2933.467623  	45.061528 
2934.899281  	45.117427 
2936.330939  	45.150517 
2937.762597  	45.144890 
2939.194256  	45.177414 
2940.625914  	45.189053 
2942.057572  	45.194591 
2943.489230  	45.198537 
2944.920888  	45.142692 
2946.352547  	45.110174 
2947.784205  	45.062401 
2949.215863  	44.960959 
2950.647521  	44.915855 
2952.079179  	44.839023 
2953.510837  	44.709483 
2954.942496  	44.633386 
2956.374154  	44.522431 
2957.805812  	44.391032 
2959.237470  	44.312049 
2960.669128  	44.214015 
2962.100787  	44.141670 
2963.532445  	44.179017 
2964.964103  	44.328673 
2966.395761  	44.560843 
2967.827419  	44.815923 
2969.259078  	45.116721 
2970.690736  	45.442681 
2972.122394  	45.740955 
2973.554052  	46.099650 
2974.985710  	46.496193 
2976.417368  	46.835505 
2977.849027  	47.135364 
2979.280685  	47.410354 
2980.712343  	47.703396 
2982.144001  	47.952153 
2983.575659  	48.070982 
2985.007318  	48.200895 
2986.438976  	48.369764 
2987.870634  	48.511978 
2989.302292  	48.652243 
2990.733950  	48.721901 
2992.165608  	48.776587 
2993.597267  	48.887874 
2995.028925  	48.923787 
2996.460583  	48.920756 
2997.892241  	48.951249 
2999.323899  	48.976046 
3000.755558  	49.020533 
3002.187216  	49.019910 
3003.618874  	48.983461 
3005.050532  	49.003036 
3006.482190  	48.989754 
3007.913849  	48.959483 
3009.345507  	48.954823 
3010.777165  	48.883966 
3012.208823  	48.834425 
3013.640481  	48.869853 
3015.072139  	48.877842 
3016.503798  	48.831650 
3017.935456  	48.763469 
3019.367114  	48.733330 
3020.798772  	48.764270 
3022.230430  	48.766560 
3023.662089  	48.695294 
3025.093747  	48.618976 
3026.525405  	48.627184 
3027.957063  	48.633829 
3029.388721  	48.507848 
3030.820380  	48.377471 
3032.252038  	48.326716 
3033.683696  	48.292588 
3035.115354  	48.297189 
3036.547012  	48.280385 
3037.978670  	48.241847 
3039.410329  	48.294653 
3040.841987  	48.349611 
3042.273645  	48.353348 
3043.705303  	48.352148 
3045.136961  	48.325311 
3046.568620  	48.341882 
3048.000278  	48.402279 
3049.431936  	48.433781 
3050.863594  	48.456519 
3052.295252  	48.441399 
3053.726910  	48.424806 
3055.158569  	48.445471 
3056.590227  	48.435811 
3058.021885  	48.459585 
3059.453543  	48.494425 
3060.885201  	48.454841 
3062.316860  	48.466265 
3063.748518  	48.533630 
3065.180176  	48.581166 
3066.611834  	48.632768 
3068.043492  	48.665804 
3069.475151  	48.728306 
3070.906809  	48.798745 
3072.338467  	48.791753 
3073.770125  	48.807397 
3075.201783  	48.824601 
3076.633441  	48.803500 
3078.065100  	48.874055 
3079.496758  	48.957059 
3080.928416  	48.949999 
3082.360074  	48.923460 
3083.791732  	48.924891 
3085.223391  	48.997563 
3086.655049  	49.067703 
3088.086707  	49.075458 
3089.518365  	49.091356 
3090.950023  	49.067347 
3092.381682  	49.051231 
3093.813340  	49.127951 
3095.244998  	49.151373 
3096.676656  	49.116518 
3098.108314  	49.101991 
3099.539972  	49.068698 
3100.971631  	49.061890 
3102.403289  	49.083204 
3103.834947  	49.119459 
3105.266605  	49.188808 
3106.698263  	49.197874 
3108.129922  	49.175328 
3109.561580  	49.192038 
3110.993238  	49.186952 
3112.424896  	49.187994 
3113.856554  	49.215281 
3115.288212  	49.221376 
3116.719871  	49.217996 
3118.151529  	49.236018 
3119.583187  	49.292060 
3121.014845  	49.304473 
3122.446503  	49.264549 
3123.878162  	49.280024 
3125.309820  	49.275647 
3126.741478  	49.252877 
3128.173136  	49.294014 
3129.604794  	49.285228 
3131.036453  	49.294271 
3132.468111  	49.388242 
3133.899769  	49.408696 
3135.331427  	49.418229 
3136.763085  	49.444297 
3138.194743  	49.393780 
3139.626402  	49.374437 
3141.058060  	49.403872 
3142.489718  	49.440547 
3143.921376  	49.481536 
3145.353034  	49.454474 
3146.784693  	49.435595 
3148.216351  	49.449502 
3149.648009  	49.441818 
3151.079667  	49.501568 
3152.511325  	49.539987 
3153.942983  	49.482633 
3155.374642  	49.456381 
3156.806300  	49.438352 
3158.237958  	49.444456 
3159.669616  	49.515136 
3161.101274  	49.560646 
3162.532933  	49.598395 
3163.964591  	49.617755 
3165.396249  	49.603470 
3166.827907  	49.582151 
3168.259565  	49.488642 
3169.691224  	49.472545 
3171.122882  	49.601374 
3172.554540  	49.638534 
3173.986198  	49.640357 
3175.417856  	49.679334 
3176.849514  	49.644905 
3178.281173  	49.624367 
3179.712831  	49.591318 
3181.144489  	49.527291 
3182.576147  	49.606047 
3184.007805  	49.708320 
3185.439464  	49.687153 
3186.871122  	49.659256 
3188.302780  	49.688959 
3189.734438  	49.744532 
3191.166096  	49.744355 
3192.597755  	49.711469 
3194.029413  	49.735596 
3195.461071  	49.733241 
3196.892729  	49.716183 
3198.324387  	49.754175 
3199.756045  	49.745604 
3201.187704  	49.725736 
3202.619362  	49.765061 
3204.051020  	49.779576 
3205.482678  	49.770074 
3206.914336  	49.787800 
3208.345995  	49.828319 
3209.777653  	49.862222 
3211.209311  	49.863879 
3212.640969  	49.854100 
3214.072627  	49.853516 
3215.504285  	49.885522 
3216.935944  	49.898578 
3218.367602  	49.833103 
3219.799260  	49.832473 
3221.230918  	49.923349 
3222.662576  	49.970373 
3224.094235  	50.007774 
3225.525893  	49.998203 
3226.957551  	49.924660 
3228.389209  	49.932700 
3229.820867  	49.948322 
3231.252526  	49.923377 
3232.684184  	49.955892 
3234.115842  	49.972812 
3235.547500  	49.981575 
3236.979158  	50.040578 
3238.410816  	50.073780 
3239.842475  	50.098905 
3241.274133  	50.123007 
3242.705791  	50.105552 
3244.137449  	50.098741 
3245.569107  	50.113723 
3247.000766  	50.107761 
3248.432424  	50.071942 
3249.864082  	50.078071 
3251.295740  	50.137425 
3252.727398  	50.126325 
3254.159057  	50.111759 
3255.590715  	50.153477 
3257.022373  	50.110475 
3258.454031  	50.101419 
3259.885689  	50.199536 
3261.317347  	50.202733 
3262.749006  	50.155990 
3264.180664  	50.143925 
3265.612322  	50.121899 
3267.043980  	50.143260 
3268.475638  	50.165523 
3269.907297  	50.145368 
3271.338955  	50.165909 
3272.770613  	50.248444 
3274.202271  	50.341088 
3275.633929  	50.337289 
3277.065587  	50.278802 
3278.497246  	50.298248 
3279.928904  	50.311964 
3281.360562  	50.299892 
3282.792220  	50.300503 
3284.223878  	50.260979 
3285.655537  	50.289949 
3287.087195  	50.341293 
3288.518853  	50.263506 
3289.950511  	50.237217 
3291.382169  	50.298029 
3292.813828  	50.321402 
3294.245486  	50.392145 
3295.677144  	50.463868 
3297.108802  	50.435745 
3298.540460  	50.375051 
3299.972118  	50.337945 
3301.403777  	50.355916 
3302.835435  	50.411167 
3304.267093  	50.470931 
3305.698751  	50.505388 
3307.130409  	50.457386 
3308.562068  	50.423552 
3309.993726  	50.462219 
3311.425384  	50.466093 
3312.857042  	50.462053 
3314.288700  	50.481641 
3315.720359  	50.484876 
3317.152017  	50.493695 
3318.583675  	50.510567 
3320.015333  	50.552237 
3321.446991  	50.561886 
3322.878649  	50.509832 
3324.310308  	50.557073 
3325.741966  	50.623524 
3327.173624  	50.565918 
3328.605282  	50.555202 
3330.036940  	50.595165 
3331.468599  	50.574665 
3332.900257  	50.537023 
3334.331915  	50.514161 
3335.763573  	50.577761 
3337.195231  	50.645243 
3338.626889  	50.578298 
3340.058548  	50.559625 
3341.490206  	50.630170 
3342.921864  	50.648534 
3344.353522  	50.677419 
3345.785180  	50.702739 
3347.216839  	50.652873 
3348.648497  	50.608915 
3350.080155  	50.641368 
3351.511813  	50.731665 
3352.943471  	50.768598 
3354.375130  	50.729843 
3355.806788  	50.709652 
3357.238446  	50.699946 
3358.670104  	50.712240 
3360.101762  	50.751510 
3361.533420  	50.750655 
3362.965079  	50.762725 
3364.396737  	50.818288 
3365.828395  	50.890710 
3367.260053  	50.956566 
3368.691711  	50.919940 
3370.123370  	50.852754 
3371.555028  	50.845159 
3372.986686  	50.808952 
3374.418344  	50.801337 
3375.850002  	50.860982 
3377.281660  	50.888468 
3378.713319  	50.892084 
3380.144977  	50.871085 
3381.576635  	50.849799 
3383.008293  	50.864127 
3384.439951  	50.875768 
3385.871610  	50.957499 
3387.303268  	51.047232 
3388.734926  	50.997615 
3390.166584  	50.942129 
3391.598242  	50.929894 
3393.029901  	50.890088 
3394.461559  	50.887336 
3395.893217  	50.929110 
3397.324875  	50.985778 
3398.756533  	50.980508 
3400.188191  	50.904789 
3401.619850  	50.934236 
3403.051508  	50.994352 
3404.483166  	50.958147 
3405.914824  	50.960905 
3407.346482  	50.993266 
3408.778141  	51.009301 
3410.209799  	51.022941 
3411.641457  	50.986261 
3413.073115  	51.008589 
3414.504773  	51.088682 
3415.936432  	51.082172 
3417.368090  	51.047171 
3418.799748  	51.005279 
3420.231406  	50.967633 
3421.663064  	50.972592 
3423.094722  	50.928500 
3424.526381  	50.922785 
3425.958039  	51.012777 
3427.389697  	51.056133 
3428.821355  	51.084423 
3430.253013  	51.124901 
3431.684672  	51.152066 
3433.116330  	51.196078 
3434.547988  	51.179413 
3435.979646  	51.170474 
3437.411304  	51.242858 
3438.842962  	51.238908 
3440.274621  	51.203958 
3441.706279  	51.234617 
3443.137937  	51.234576 
3444.569595  	51.215011 
3446.001253  	51.240024 
3447.432912  	51.303521 
3448.864570  	51.333283 
3450.296228  	51.322399 
3451.727886  	51.384432 
3453.159544  	51.420490 
3454.591203  	51.322424 
3456.022861  	51.250525 
3457.454519  	51.246665 
3458.886177  	51.274512 
3460.317835  	51.332674 
3461.749493  	51.345403 
3463.181152  	51.363400 
3464.612810  	51.413324 
3466.044468  	51.446596 
3467.476126  	51.493589 
3468.907784  	51.462462 
3470.339443  	51.390810 
3471.771101  	51.429638 
3473.202759  	51.449991 
3474.634417  	51.425937 
3476.066075  	51.467921 
3477.497734  	51.509182 
3478.929392  	51.526036 
3480.361050  	51.501827 
3481.792708  	51.469216 
3483.224366  	51.524516 
3484.656024  	51.538593 
3486.087683  	51.515050 
3487.519341  	51.567786 
3488.950999  	51.566019 
3490.382657  	51.528722 
3491.814315  	51.573452 
3493.245974  	51.617877 
3494.677632  	51.639292 
3496.109290  	51.654206 
3497.540948  	51.638046 
3498.972606  	51.593397 
3500.404264  	51.543407 
3501.835923  	51.567071 
3503.267581  	51.638768 
3504.699239  	51.651127 
3506.130897  	51.632208 
3507.562555  	51.602865 
3508.994214  	51.602891 
3510.425872  	51.648444 
3511.857530  	51.649356 
3513.289188  	51.669942 
3514.720846  	51.709412 
3516.152505  	51.678354 
3517.584163  	51.697246 
3519.015821  	51.735488 
3520.447479  	51.665340 
3521.879137  	51.643830 
3523.310795  	51.705411 
3524.742454  	51.704616 
3526.174112  	51.687868 
3527.605770  	51.706179 
3529.037428  	51.703501 
3530.469086  	51.711194 
3531.900745  	51.768421 
3533.332403  	51.789770 
3534.764061  	51.777412 
3536.195719  	51.820115 
3537.627377  	51.821724 
3539.059035  	51.787058 
3540.490694  	51.862554 
3541.922352  	51.928449 
3543.354010  	51.926502 
3544.785668  	51.980235 
3546.217326  	52.040698 
3547.648985  	52.056083 
3549.080643  	52.032195 
3550.512301  	52.019058 
3551.943959  	52.084528 
3553.375617  	52.065284 
3554.807276  	51.992372 
3556.238934  	52.054408 
3557.670592  	52.054866 
3559.102250  	51.974026 
3560.533908  	52.010546 
3561.965566  	52.068314 
3563.397225  	52.053513 
3564.828883  	51.977215 
3566.260541  	51.965331 
3567.692199  	52.190713 
3569.123857  	52.248108 
3570.555516  	52.155635 
3571.987174  	52.224849 
3573.418832  	52.251737 
3574.850490  	52.166940 
3576.282148  	52.135020 
3577.713807  	52.158225 
3579.145465  	52.266700 
3580.577123  	52.353720 
3582.008781  	52.331984 
3583.440439  	52.306960 
3584.872097  	52.217891 
3586.303756  	52.189261 
3587.735414  	52.402164 
3589.167072  	52.444225 
3590.598730  	52.342812 
3592.030388  	52.353943 
3593.462047  	52.324458 
3594.893705  	52.326469 
3596.325363  	52.439021 
3597.757021  	52.438668 
3599.188679  	52.377393 
3600.620337  	52.426303 
3602.051996  	52.491283 
3603.483654  	52.422469 
3604.915312  	52.341586 
3606.346970  	52.368130 
3607.778628  	52.430085 
3609.210287  	52.510309 
3610.641945  	52.545878 
3612.073603  	52.465041 
3613.505261  	52.439895 
3614.936919  	52.470825 
3616.368578  	52.379004 
3617.800236  	52.295244 
3619.231894  	52.360707 
3620.663552  	52.525411 
3622.095210  	52.621640 
3623.526868  	52.637435 
3624.958527  	52.595211 
3626.390185  	52.433742 
3627.821843  	52.436044 
3629.253501  	52.930471 
3630.685159  	52.820306 
3632.116818  	52.486371 
3633.548476  	52.653274 
3634.980134  	52.774113 
3636.411792  	52.635842 
3637.843450  	52.651844 
3639.275109  	52.610352 
3640.706767  	52.568013 
3642.138425  	52.721951 
3643.570083  	52.691215 
3645.001741  	52.520299 
3646.433399  	52.501955 
3647.865058  	52.463507 
3649.296716  	52.424171 
3650.728374  	52.690029 
3652.160032  	52.849414 
3653.591690  	52.724454 
3655.023349  	52.699560 
3656.455007  	52.863472 
3657.886665  	52.860266 
3659.318323  	52.755800 
3660.749981  	52.791967 
3662.181639  	52.835536 
3663.613298  	52.841431 
3665.044956  	52.872547 
3666.476614  	52.828954 
3667.908272  	52.724912 
3669.339930  	52.782604 
3670.771589  	53.002571 
3672.203247  	52.788647 
3673.634905  	52.587017 
3675.066563  	52.959213 
3676.498221  	53.335837 
3677.929880  	52.917339 
3679.361538  	52.981234 
3680.793196  	53.155193 
3682.224854  	53.062202 
3683.656512  	53.102411 
3685.088170  	53.021360 
3686.519829  	52.792192 
3687.951487  	52.914572 
3689.383145  	53.180579 
3690.814803  	53.199176 
3692.246461  	53.232849 
3693.678120  	53.120255 
3695.109778  	53.038473 
3696.541436  	53.117958 
3697.973094  	53.119542 
3699.404752  	53.062429 
3700.836411  	53.112543 
3702.268069  	53.236418 
3703.699727  	53.265333 
3705.131385  	53.210305 
3706.563043  	53.159657 
3707.994701  	53.085742 
3709.426360  	53.075555 
3710.858018  	53.196939 
3712.289676  	53.250074 
3713.721334  	53.306105 
3715.152992  	53.339308 
3716.584651  	53.235527 
3718.016309  	53.207746 
3719.447967  	53.231519 
3720.879625  	53.131053 
3722.311283  	53.100263 
3723.742941  	53.164558 
3725.174600  	53.270219 
3726.606258  	53.440944 
3728.037916  	53.352547 
3729.469574  	53.181106 
3730.901232  	53.216937 
3732.332891  	53.137748 
3733.764549  	52.936255 
3735.196207  	53.207607 
3736.627865  	53.626723 
3738.059523  	53.470274 
3739.491182  	53.419638 
3740.922840  	53.437797 
3742.354498  	53.209214 
3743.786156  	53.259176 
3745.217814  	53.788935 
3746.649472  	53.401256 
3748.081131  	53.210462 
3749.512789  	53.472966 
3750.944447  	53.503547 
3752.376105  	53.519724 
3753.807763  	53.583908 
3755.239422  	53.375510 
3756.671080  	53.358732 
3758.102738  	53.467239 
3759.534396  	53.530088 
3760.966054  	53.679138 
3762.397712  	53.533607 
3763.829371  	53.370880 
3765.261029  	53.535188 
3766.692687  	53.559993 
3768.124345  	53.463545 
3769.556003  	53.597989 
3770.987662  	53.616630 
3772.419320  	53.504318 
3773.850978  	53.511363 
3775.282636  	53.541175 
3776.714294  	53.553638 
3778.145953  	53.577139 
3779.577611  	53.655408 
3781.009269  	53.644214 
3782.440927  	53.552464 
3783.872585  	53.595989 
3785.304243  	53.618611 
3786.735902  	53.566545 
3788.167560  	53.610825 
3789.599218  	53.590381 
3791.030876  	53.599523 
3792.462534  	53.712937 
3793.894193  	53.663510 
3795.325851  	53.670239 
3796.757509  	53.826066 
3798.189167  	53.664779 
3799.620825  	53.517357 
3801.052484  	53.749929 
3802.484142  	53.956947 
3803.915800  	53.634372 
3805.347458  	53.498723 
3806.779116  	53.771855 
3808.210774  	53.923062 
3809.642433  	53.703568 
3811.074091  	53.727768 
3812.505749  	53.733270 
3813.937407  	53.583361 
3815.369065  	53.767720 
3816.800724  	53.988053 
3818.232382  	53.567957 
3819.664040  	53.429075 
3821.095698  	53.849123 
3822.527356  	54.037018 
3823.959014  	53.723131 
3825.390673  	53.758716 
3826.822331  	53.991155 
3828.253989  	53.847299 
3829.685647  	53.700728 
3831.117305  	53.845665 
3832.548964  	53.869722 
3833.980622  	53.769028 
3835.412280  	53.820930 
3836.843938  	53.837807 
3838.275596  	53.786795 
3839.707255  	53.807463 
3841.138913  	53.816735 
3842.570571  	53.843058 
3844.002229  	53.969443 
3845.433887  	54.049030 
3846.865545  	53.972822 
3848.297204  	53.936016 
3849.728862  	53.906461 
3851.160520  	53.734558 
3852.592178  	53.754260 
3854.023836  	54.117733 
3855.455495  	54.010520 
3856.887153  	54.010341 
3858.318811  	54.061457 
3859.750469  	53.975272 
3861.182127  	54.007156 
3862.613786  	53.974266 
3864.045444  	53.889883 
3865.477102  	54.060424 
3866.908760  	53.950158 
3868.340418  	53.831039 
3869.772076  	54.146616 
3871.203735  	54.131583 
3872.635393  	53.897611 
3874.067051  	54.120622 
3875.498709  	54.237190 
3876.930367  	54.009613 
3878.362026  	53.942305 
3879.793684  	54.091601 
3881.225342  	54.226912 
3882.657000  	54.033890 
3884.088658  	53.942974 
3885.520316  	54.204030 
3886.951975  	54.280609 
3888.383633  	54.045867 
3889.815291  	54.041600 
3891.246949  	54.190735 
3892.678607  	54.248192 
3894.110266  	54.271164 
3895.541924  	54.291009 
3896.973582  	54.210084 
3898.405240  	54.154709 
3899.836898  	54.246735 
3901.268557  	54.199944 
3902.700215  	54.062248 
3904.131873  	54.133622 
3905.563531  	54.197539 
3906.995189  	54.202120 
3908.426847  	54.269663 
3909.858506  	54.308968 
3911.290164  	54.375731 
3912.721822  	54.395390 
3914.153480  	54.250128 
3915.585138  	54.182254 
3917.016797  	54.208640 
3918.448455  	54.207229 
3919.880113  	54.284351 
3921.311771  	54.301986 
3922.743429  	54.243594 
3924.175088  	54.312621 
3925.606746  	54.368061 
3927.038404  	54.328651 
3928.470062  	54.378479 
3929.901720  	54.415597 
3931.333378  	54.349921 
3932.765037  	54.369618 
3934.196695  	54.448717 
3935.628353  	54.403603 
3937.060011  	54.378641 
3938.491669  	54.432118 
3939.923328  	54.364404 
3941.354986  	54.291010 
3942.786644  	54.388639 
3944.218302  	54.414762 
3945.649960  	54.349076 
3947.081618  	54.406807 
3948.513277  	54.486637 
3949.944935  	54.482954 
3951.376593  	54.500013 
3952.808251  	54.565088 
3954.239909  	54.580350 
3955.671568  	54.528393 
3957.103226  	54.534150 
3958.534884  	54.574653 
3959.966542  	54.550226 
3961.398200  	54.538270 
3962.829859  	54.541384 
3964.261517  	54.537055 
3965.693175  	54.579312 
3967.124833  	54.598413 
3968.556491  	54.572169 
3969.988149  	54.540007 
3971.419808  	54.522505 
3972.851466  	54.571967 
3974.283124  	54.574108 
3975.714782  	54.512958 
3977.146440  	54.544715 
3978.578099  	54.580481 
3980.009757  	54.626294 
3981.441415  	54.724482 
3982.873073  	54.664908 
3984.304731  	54.563307 
3985.736389  	54.615792 
3987.168048  	54.678155 
3988.599706  	54.716123 
3990.031364  	54.710098 
3991.463022  	54.642366 
3992.894680  	54.678403 
3994.326339  	54.770350 
3995.757997  	54.790130 
3997.189655  	54.760857 
3998.621313  	54.723711 
4000.052971  	54.760787 