##TITLE=No Description
##DATA TYPE=INFRARED SPECTRUM
##XUNITS=1/CM
##YUNITS=Abs
399.432634  	0.354256 
400.864292  	0.321435 
402.295950  	0.340008 
403.727608  	0.401421 
405.159267  	0.443905 
406.590925  	0.420247 
408.022583  	0.387870 
409.454241  	0.388622 
410.885899  	0.393986 
412.317558  	0.364239 
413.749216  	0.335944 
415.180874  	0.352027 
416.612532  	0.365747 
418.044190  	0.353628 
419.475848  	0.354620 
420.907507  	0.358643 
422.339165  	0.365157 
423.770823  	0.372722 
425.202481  	0.355421 
426.634139  	0.330668 
428.065798  	0.319891 
429.497456  	0.320024 
430.929114  	0.323200 
432.360772  	0.319865 
433.792430  	0.314582 
435.224089  	0.318871 
436.655747  	0.313032 
438.087405  	0.292034 
439.519063  	0.281357 
440.950721  	0.284080 
442.382379  	0.289409 
443.814038  	0.293426 
445.245696  	0.283479 
446.677354  	0.254371 
448.109012  	0.240982 
449.540670  	0.257213 
450.972329  	0.268709 
452.403987  	0.263815 
453.835645  	0.259307 
455.267303  	0.261629 
456.698961  	0.269040 
458.130619  	0.277556 
459.562278  	0.279141 
460.993936  	0.277824 
462.425594  	0.279528 
463.857252  	0.286091 
465.288910  	0.289572 
466.720569  	0.288342 
468.152227  	0.294157 
469.583885  	0.299994 
471.015543  	0.294694 
472.447201  	0.293412 
473.878860  	0.305932 
475.310518  	0.314771 
476.742176  	0.312633 
478.173834  	0.310485 
479.605492  	0.319636 
481.037150  	0.326414 
482.468809  	0.323275 
483.900467  	0.328693 
485.332125  	0.343579 
486.763783  	0.351270 
488.195441  	0.350742 
489.627100  	0.343991 
491.058758  	0.341041 
492.490416  	0.350280 
493.922074  	0.358236 
495.353732  	0.360722 
496.785391  	0.364762 
498.217049  	0.368016 
499.648707  	0.373453 
501.080365  	0.381426 
502.512023  	0.382012 
503.943681  	0.381141 
505.375340  	0.389072 
506.806998  	0.398283 
508.238656  	0.400884 
509.670314  	0.401599 
511.101972  	0.404946 
512.533631  	0.407826 
513.965289  	0.406144 
515.396947  	0.403027 
516.828605  	0.406313 
518.260263  	0.416457 
519.691921  	0.423013 
521.123580  	0.425247 
522.555238  	0.428734 
523.986896  	0.432598 
525.418554  	0.435100 
526.850212  	0.435369 
528.281871  	0.433140 
529.713529  	0.433145 
531.145187  	0.435452 
532.576845  	0.435230 
534.008503  	0.435523 
535.440162  	0.439916 
536.871820  	0.442260 
538.303478  	0.439237 
539.735136  	0.438546 
541.166794  	0.444447 
542.598452  	0.449006 
544.030111  	0.446750 
545.461769  	0.439930 
546.893427  	0.432729 
548.325085  	0.431973 
549.756743  	0.434631 
551.188402  	0.430272 
552.620060  	0.422481 
554.051718  	0.414695 
555.483376  	0.402716 
556.915034  	0.389937 
558.346692  	0.377368 
559.778351  	0.363549 
561.210009  	0.352653 
562.641667  	0.342544 
564.073325  	0.329206 
565.504983  	0.314472 
566.936642  	0.300434 
568.368300  	0.292135 
569.799958  	0.292805 
571.231616  	0.298809 
572.663274  	0.305859 
574.094933  	0.310173 
575.526591  	0.311439 
576.958249  	0.311771 
578.389907  	0.309711 
579.821565  	0.306226 
581.253223  	0.305925 
582.684882  	0.307651 
584.116540  	0.308236 
585.548198  	0.307964 
586.979856  	0.306725 
588.411514  	0.305535 
589.843173  	0.306232 
591.274831  	0.307176 
592.706489  	0.306830 
594.138147  	0.307405 
595.569805  	0.308923 
597.001464  	0.309033 
598.433122  	0.309299 
599.864780  	0.310991 
601.296438  	0.310505 
602.728096  	0.308390 
604.159754  	0.308689 
605.591413  	0.309337 
607.023071  	0.308056 
608.454729  	0.307583 
609.886387  	0.308027 
611.318045  	0.307270 
612.749704  	0.306639 
614.181362  	0.307166 
615.613020  	0.306619 
617.044678  	0.304763 
618.476336  	0.304406 
619.907994  	0.305019 
621.339653  	0.304425 
622.771311  	0.303444 
624.202969  	0.302558 
625.634627  	0.301645 
627.066285  	0.301678 
628.497944  	0.301312 
629.929602  	0.299885 
631.361260  	0.299151 
632.792918  	0.297798 
634.224576  	0.294838 
635.656235  	0.292542 
637.087893  	0.291218 
638.519551  	0.289975 
639.951209  	0.288235 
641.382867  	0.285908 
642.814525  	0.285403 
644.246184  	0.286353 
645.677842  	0.285323 
647.109500  	0.283770 
648.541158  	0.282624 
649.972816  	0.279067 
651.404475  	0.275586 
652.836133  	0.275043 
654.267791  	0.273075 
655.699449  	0.268437 
657.131107  	0.265225 
658.562766  	0.262429 
659.994424  	0.258836 
661.426082  	0.257095 
662.857740  	0.254275 
664.289398  	0.249300 
665.721056  	0.248170 
667.152715  	0.250260 
668.584373  	0.246483 
670.016031  	0.240423 
671.447689  	0.237615 
672.879347  	0.235018 
674.311006  	0.232975 
675.742664  	0.230317 
677.174322  	0.226318 
678.605980  	0.223008 
680.037638  	0.220112 
681.469296  	0.216785 
682.900955  	0.213715 
684.332613  	0.211238 
685.764271  	0.208928 
687.195929  	0.205654 
688.627587  	0.201797 
690.059246  	0.198450 
691.490904  	0.195025 
692.922562  	0.191924 
694.354220  	0.189861 
695.785878  	0.188190 
697.217537  	0.186493 
698.649195  	0.184214 
700.080853  	0.182112 
701.512511  	0.181106 
702.944169  	0.179409 
704.375827  	0.176975 
705.807486  	0.175051 
707.239144  	0.172117 
708.670802  	0.168299 
710.102460  	0.164677 
711.534118  	0.159728 
712.965777  	0.154180 
714.397435  	0.150264 
715.829093  	0.147379 
717.260751  	0.144339 
718.692409  	0.140869 
720.124067  	0.137309 
721.555726  	0.134296 
722.987384  	0.131852 
724.419042  	0.129929 
725.850700  	0.128194 
727.282358  	0.126093 
728.714017  	0.123658 
730.145675  	0.120675 
731.577333  	0.117132 
733.008991  	0.113503 
734.440649  	0.109578 
735.872308  	0.105697 
737.303966  	0.102759 
738.735624  	0.100555 
740.167282  	0.098811 
741.598940  	0.097546 
743.030598  	0.096443 
744.462257  	0.095694 
745.893915  	0.095440 
747.325573  	0.095531 
748.757231  	0.096535 
750.188889  	0.098239 
751.620548  	0.099750 
753.052206  	0.101690 
754.483864  	0.104082 
755.915522  	0.106016 
757.347180  	0.108028 
758.778839  	0.109886 
760.210497  	0.110468 
761.642155  	0.110520 
763.073813  	0.110874 
764.505471  	0.111228 
765.937129  	0.111721 
767.368788  	0.112265 
768.800446  	0.111544 
770.232104  	0.108160 
771.663762  	0.102100 
773.095420  	0.094781 
774.527079  	0.087723 
775.958737  	0.081007 
777.390395  	0.074350 
778.822053  	0.068764 
780.253711  	0.064783 
781.685369  	0.061458 
783.117028  	0.058424 
784.548686  	0.056297 
785.980344  	0.054910 
787.412002  	0.053745 
788.843660  	0.052919 
790.275319  	0.052460 
791.706977  	0.052323 
793.138635  	0.052468 
794.570293  	0.053204 
796.001951  	0.055223 
797.433610  	0.057972 
798.865268  	0.061174 
800.296926  	0.066259 
801.728584  	0.073601 
803.160242  	0.082735 
804.591900  	0.093076 
806.023559  	0.103443 
807.455217  	0.113784 
808.886875  	0.124054 
810.318533  	0.133715 
811.750191  	0.142123 
813.181850  	0.147586 
814.613508  	0.150042 
816.045166  	0.150399 
817.476824  	0.148634 
818.908482  	0.147002 
820.340141  	0.148296 
821.771799  	0.152710 
823.203457  	0.160608 
824.635115  	0.171638 
826.066773  	0.182643 
827.498431  	0.190423 
828.930090  	0.192644 
830.361748  	0.188016 
831.793406  	0.178146 
833.225064  	0.165426 
834.656722  	0.150561 
836.088381  	0.135644 
837.520039  	0.122802 
838.951697  	0.111883 
840.383355  	0.102979 
841.815013  	0.095976 
843.246671  	0.089909 
844.678330  	0.084029 
846.109988  	0.077730 
847.541646  	0.070921 
848.973304  	0.063685 
850.404962  	0.056022 
851.836621  	0.048524 
853.268279  	0.041732 
854.699937  	0.036002 
856.131595  	0.031295 
857.563253  	0.027304 
858.994912  	0.024534 
860.426570  	0.022893 
861.858228  	0.021506 
863.289886  	0.020686 
864.721544  	0.021004 
866.153202  	0.022154 
867.584861  	0.023851 
869.016519  	0.026117 
870.448177  	0.028960 
871.879835  	0.032440 
873.311493  	0.036526 
874.743152  	0.040905 
876.174810  	0.045693 
877.606468  	0.051377 
879.038126  	0.057728 
880.469784  	0.064171 
881.901443  	0.070675 
883.333101  	0.077087 
884.764759  	0.082247 
886.196417  	0.085285 
887.628075  	0.085658 
889.059733  	0.081486 
890.491392  	0.072482 
891.923050  	0.060744 
893.354708  	0.047963 
894.786366  	0.036513 
896.218024  	0.028543 
897.649683  	0.023782 
899.081341  	0.021222 
900.512999  	0.020296 
901.944657  	0.020004 
903.376315  	0.020010 
904.807973  	0.020783 
906.239632  	0.022086 
907.671290  	0.023416 
909.102948  	0.024520 
910.534606  	0.025611 
911.966264  	0.027420 
913.397923  	0.029886 
914.829581  	0.032177 
916.261239  	0.033910 
917.692897  	0.035252 
919.124555  	0.036201 
920.556214  	0.036216 
921.987872  	0.035194 
923.419530  	0.033626 
924.851188  	0.032149 
926.282846  	0.031944 
927.714504  	0.033230 
929.146163  	0.034823 
930.577821  	0.036747 
932.009479  	0.039341 
933.441137  	0.041602 
934.872795  	0.042857 
936.304454  	0.043302 
937.736112  	0.043851 
939.167770  	0.045152 
940.599428  	0.046276 
942.031086  	0.046815 
943.462744  	0.047464 
944.894403  	0.047894 
946.326061  	0.047471 
947.757719  	0.046500 
949.189377  	0.045875 
950.621035  	0.046313 
952.052694  	0.047419 
953.484352  	0.048703 
954.916010  	0.050449 
956.347668  	0.052550 
957.779326  	0.054488 
959.210985  	0.055780 
960.642643  	0.056343 
962.074301  	0.056884 
963.505959  	0.057624 
964.937617  	0.058011 
966.369275  	0.058168 
967.800934  	0.058655 
969.232592  	0.059561 
970.664250  	0.060703 
972.095908  	0.062065 
973.527566  	0.063795 
974.959225  	0.065834 
976.390883  	0.068047 
977.822541  	0.070478 
979.254199  	0.073174 
980.685857  	0.076281 
982.117516  	0.080049 
983.549174  	0.084397 
984.980832  	0.088983 
986.412490  	0.094209 
987.844148  	0.100734 
989.275806  	0.107700 
990.707465  	0.114286 
992.139123  	0.120476 
993.570781  	0.125252 
995.002439  	0.128967 
996.434097  	0.133480 
997.865756  	0.139907 
999.297414  	0.150472 
1000.729072  	0.166197 
1002.160730  	0.184655 
1003.592388  	0.202686 
1005.024046  	0.215177 
1006.455705  	0.219925 
1007.887363  	0.222160 
1009.319021  	0.228393 
1010.750679  	0.246855 
1012.182337  	0.279169 
1013.613996  	0.300602 
1015.045654  	0.278409 
1016.477312  	0.219720 
1017.908970  	0.158354 
1019.340628  	0.111611 
1020.772287  	0.080646 
1022.203945  	0.061136 
1023.635603  	0.047360 
1025.067261  	0.037850 
1026.498919  	0.033235 
1027.930577  	0.032090 
1029.362236  	0.032762 
1030.793894  	0.034531 
1032.225552  	0.036773 
1033.657210  	0.039227 
1035.088868  	0.042045 
1036.520527  	0.045074 
1037.952185  	0.047981 
1039.383843  	0.050574 
1040.815501  	0.052910 
1042.247159  	0.055321 
1043.678818  	0.057939 
1045.110476  	0.060697 
1046.542134  	0.063454 
1047.973792  	0.066176 
1049.405450  	0.069171 
1050.837108  	0.072124 
1052.268767  	0.074531 
1053.700425  	0.076887 
1055.132083  	0.079538 
1056.563741  	0.082538 
1057.995399  	0.085933 
1059.427058  	0.089469 
1060.858716  	0.093277 
1062.290374  	0.097186 
1063.722032  	0.101324 
1065.153690  	0.106549 
1066.585348  	0.112183 
1068.017007  	0.118444 
1069.448665  	0.126857 
1070.880323  	0.136797 
1072.311981  	0.148822 
1073.743639  	0.164825 
1075.175298  	0.186297 
1076.606956  	0.215408 
1078.038614  	0.244281 
1079.470272  	0.255346 
1080.901930  	0.241704 
1082.333589  	0.209297 
1083.765247  	0.171648 
1085.196905  	0.139582 
1086.628563  	0.116900 
1088.060221  	0.104514 
1089.491879  	0.100948 
1090.923538  	0.103426 
1092.355196  	0.109750 
1093.786854  	0.117905 
1095.218512  	0.127384 
1096.650170  	0.138929 
1098.081829  	0.151162 
1099.513487  	0.162326 
1100.945145  	0.169755 
1102.376803  	0.171135 
1103.808461  	0.169245 
1105.240120  	0.166922 
1106.671778  	0.165934 
1108.103436  	0.166973 
1109.535094  	0.167044 
1110.966752  	0.165023 
1112.398410  	0.162217 
1113.830069  	0.159398 
1115.261727  	0.158280 
1116.693385  	0.158774 
1118.125043  	0.160089 
1119.556701  	0.163286 
1120.988360  	0.167837 
1122.420018  	0.172941 
1123.851676  	0.178905 
1125.283334  	0.185703 
1126.714992  	0.193822 
1128.146650  	0.202110 
1129.578309  	0.210216 
1131.009967  	0.219785 
1132.441625  	0.229379 
1133.873283  	0.239402 
1135.304941  	0.251312 
1136.736600  	0.262903 
1138.168258  	0.275380 
1139.599916  	0.289417 
1141.031574  	0.303200 
1142.463232  	0.318314 
1143.894891  	0.333514 
1145.326549  	0.348642 
1146.758207  	0.365684 
1148.189865  	0.382047 
1149.621523  	0.399131 
1151.053181  	0.416497 
1152.484840  	0.431190 
1153.916498  	0.446743 
1155.348156  	0.459258 
1156.779814  	0.466131 
1158.211472  	0.469258 
1159.643131  	0.461238 
1161.074789  	0.443296 
1162.506447  	0.417641 
1163.938105  	0.382416 
1165.369763  	0.343690 
1166.801421  	0.303095 
1168.233080  	0.264547 
1169.664738  	0.236499 
1171.096396  	0.222754 
1172.528054  	0.226144 
1173.959712  	0.245998 
1175.391371  	0.274703 
1176.823029  	0.305100 
1178.254687  	0.331761 
1179.686345  	0.353876 
1181.118003  	0.377750 
1182.549662  	0.401916 
1183.981320  	0.422960 
1185.412978  	0.438398 
1186.844636  	0.440670 
1188.276294  	0.433415 
1189.707952  	0.420030 
1191.139611  	0.400198 
1192.571269  	0.379692 
1194.002927  	0.357359 
1195.434585  	0.333012 
1196.866243  	0.309192 
1198.297902  	0.284067 
1199.729560  	0.259620 
1201.161218  	0.236649 
1202.592876  	0.214960 
1204.024534  	0.198566 
1205.456193  	0.189800 
1206.887851  	0.191433 
1208.319509  	0.205967 
1209.751167  	0.229748 
1211.182825  	0.258661 
1212.614483  	0.288520 
1214.046142  	0.312032 
1215.477800  	0.329089 
1216.909458  	0.339490 
1218.341116  	0.342416 
1219.772774  	0.342562 
1221.204433  	0.338791 
1222.636091  	0.332050 
1224.067749  	0.324921 
1225.499407  	0.315309 
1226.931065  	0.305993 
1228.362723  	0.297110 
1229.794382  	0.286977 
1231.226040  	0.278289 
1232.657698  	0.269322 
1234.089356  	0.259886 
1235.521014  	0.251813 
1236.952673  	0.243112 
1238.384331  	0.235069 
1239.815989  	0.227833 
1241.247647  	0.219738 
1242.679305  	0.212504 
1244.110964  	0.204769 
1245.542622  	0.195898 
1246.974280  	0.187334 
1248.405938  	0.177106 
1249.837596  	0.165724 
1251.269254  	0.153976 
1252.700913  	0.140581 
1254.132571  	0.126774 
1255.564229  	0.112492 
1256.995887  	0.097409 
1258.427545  	0.082942 
1259.859204  	0.068939 
1261.290862  	0.055579 
1262.722520  	0.043727 
1264.154178  	0.033408 
1265.585836  	0.024796 
1267.017495  	0.017901 
1268.449153  	0.012339 
1269.880811  	0.007985 
1271.312469  	0.004668 
1272.744127  	0.002157 
1274.175785  	0.000634 
1275.607444  	-0.000128 
1277.039102  	-0.000520 
1278.470760  	-0.000101 
1279.902418  	0.001024 
1281.334076  	0.002343 
1282.765735  	0.004231 
1284.197393  	0.006569 
1285.629051  	0.008682 
1287.060709  	0.010565 
1288.492367  	0.012346 
1289.924025  	0.013675 
1291.355684  	0.014082 
1292.787342  	0.013396 
1294.219000  	0.011643 
1295.650658  	0.008939 
1297.082316  	0.005580 
1298.513975  	0.001999 
1299.945633  	-0.001532 
1301.377291  	-0.004493 
1302.808949  	-0.006572 
1304.240607  	-0.007994 
1305.672266  	-0.008290 
1307.103924  	-0.007446 
1308.535582  	-0.006366 
1309.967240  	-0.005993 
1311.398898  	-0.007341 
1312.830556  	-0.010296 
1314.262215  	-0.013613 
1315.693873  	-0.016673 
1317.125531  	-0.018903 
1318.557189  	-0.020185 
1319.988847  	-0.021283 
1321.420506  	-0.021803 
1322.852164  	-0.021841 
1324.283822  	-0.021936 
1325.715480  	-0.021848 
1327.147138  	-0.021996 
1328.578796  	-0.022246 
1330.010455  	-0.022084 
1331.442113  	-0.022033 
1332.873771  	-0.022014 
1334.305429  	-0.021945 
1335.737087  	-0.021928 
1337.168746  	-0.021529 
1338.600404  	-0.021257 
1340.032062  	-0.021289 
1341.463720  	-0.021140 
1342.895378  	-0.021126 
1344.327037  	-0.021008 
1345.758695  	-0.020846 
1347.190353  	-0.020735 
1348.622011  	-0.020136 
1350.053669  	-0.019768 
1351.485327  	-0.019636 
1352.916986  	-0.018971 
1354.348644  	-0.018302 
1355.780302  	-0.017233 
1357.211960  	-0.015528 
1358.643618  	-0.012946 
1360.075277  	-0.007526 
1361.506935  	0.000877 
1362.938593  	0.010042 
1364.370251  	0.013956 
1365.801909  	0.010674 
1367.233568  	0.003300 
1368.665226  	-0.004879 
1370.096884  	-0.010913 
1371.528542  	-0.014034 
1372.960200  	-0.015185 
1374.391858  	-0.016105 
1375.823517  	-0.016373 
1377.255175  	-0.015826 
1378.686833  	-0.015072 
1380.118491  	-0.013567 
1381.550149  	-0.011190 
1382.981808  	-0.007256 
1384.413466  	-0.002543 
1385.845124  	0.000747 
1387.276782  	0.000764 
1388.708440  	-0.002355 
1390.140098  	-0.005750 
1391.571757  	-0.008886 
1393.003415  	-0.010759 
1394.435073  	-0.011446 
1395.866731  	-0.011604 
1397.298389  	-0.010589 
1398.730048  	-0.008756 
1400.161706  	-0.006952 
1401.593364  	-0.004301 
1403.025022  	-0.000443 
1404.456680  	0.003815 
1405.888339  	0.008742 
1407.319997  	0.013381 
1408.751655  	0.015615 
1410.183313  	0.015396 
1411.614971  	0.012086 
1413.046629  	0.006637 
1414.478288  	0.001315 
1415.909946  	-0.004001 
1417.341604  	-0.008115 
1418.773262  	-0.010840 
1420.204920  	-0.013768 
1421.636579  	-0.014499 
1423.068237  	-0.014460 
1424.499895  	-0.015513 
1425.931553  	-0.015706 
1427.363211  	-0.015224 
1428.794870  	-0.015181 
1430.226528  	-0.014867 
1431.658186  	-0.014769 
1433.089844  	-0.014436 
1434.521502  	-0.013510 
1435.953160  	-0.013153 
1437.384819  	-0.012576 
1438.816477  	-0.011210 
1440.248135  	-0.009703 
1441.679793  	-0.007838 
1443.111451  	-0.006588 
1444.543110  	-0.005232 
1445.974768  	-0.003397 
1447.406426  	-0.002186 
1448.838084  	-0.000756 
1450.269742  	0.000648 
1451.701400  	0.001121 
1453.133059  	0.001404 
1454.564717  	0.002070 
1455.996375  	0.003444 
1457.428033  	0.006010 
1458.859691  	0.008461 
1460.291350  	0.011819 
1461.723008  	0.014931 
1463.154666  	0.017142 
1464.586324  	0.018109 
1466.017982  	0.016561 
1467.449641  	0.015648 
1468.881299  	0.014812 
1470.312957  	0.013686 
1471.744615  	0.013700 
1473.176273  	0.012352 
1474.607931  	0.011500 
1476.039590  	0.012946 
1477.471248  	0.013387 
1478.902906  	0.014561 
1480.334564  	0.017296 
1481.766222  	0.019426 
1483.197881  	0.023001 
1484.629539  	0.028212 
1486.061197  	0.033529 
1487.492855  	0.041374 
1488.924513  	0.050019 
1490.356172  	0.058937 
1491.787830  	0.072227 
1493.219488  	0.084093 
1494.651146  	0.096120 
1496.082804  	0.112141 
1497.514462  	0.126499 
1498.946121  	0.140470 
1500.377779  	0.153280 
1501.809437  	0.158127 
1503.241095  	0.160095 
1504.672753  	0.158526 
1506.104412  	0.145750 
1507.536070  	0.119805 
1508.967728  	0.096207 
1510.399386  	0.074736 
1511.831044  	0.053951 
1513.262702  	0.034605 
1514.694361  	0.020902 
1516.126019  	0.011625 
1517.557677  	0.001368 
1518.989335  	-0.004605 
1520.420993  	-0.006468 
1521.852652  	-0.011537 
1523.284310  	-0.014516 
1524.715968  	-0.014379 
1526.147626  	-0.016324 
1527.579284  	-0.017785 
1529.010943  	-0.018154 
1530.442601  	-0.018952 
1531.874259  	-0.018441 
1533.305917  	-0.018383 
1534.737575  	-0.020163 
1536.169233  	-0.019974 
1537.600892  	-0.019561 
1539.032550  	-0.019510 
1540.464208  	-0.019793 
1541.895866  	-0.021202 
1543.327524  	-0.021069 
1544.759183  	-0.021169 
1546.190841  	-0.022181 
1547.622499  	-0.021632 
1549.054157  	-0.021071 
1550.485815  	-0.021649 
1551.917473  	-0.021441 
1553.349132  	-0.020971 
1554.780790  	-0.021150 
1556.212448  	-0.020866 
1557.644106  	-0.019823 
1559.075764  	-0.019909 
1560.507423  	-0.022578 
1561.939081  	-0.021984 
1563.370739  	-0.021132 
1564.802397  	-0.021204 
1566.234055  	-0.021244 
1567.665714  	-0.020523 
1569.097372  	-0.020211 
1570.529030  	-0.020554 
1571.960688  	-0.020311 
1573.392346  	-0.019538 
1574.824004  	-0.018585 
1576.255663  	-0.018444 
1577.687321  	-0.018756 
1579.118979  	-0.018083 
1580.550637  	-0.017195 
1581.982295  	-0.016156 
1583.413954  	-0.014693 
1584.845612  	-0.012935 
1586.277270  	-0.010995 
1587.708928  	-0.008595 
1589.140586  	-0.005872 
1590.572245  	-0.003758 
1592.003903  	-0.002332 
1593.435561  	-0.001788 
1594.867219  	-0.002199 
1596.298877  	-0.002771 
1597.730535  	-0.003128 
1599.162194  	-0.002756 
1600.593852  	-0.002087 
1602.025510  	-0.002011 
1603.457168  	-0.002346 
1604.888826  	-0.003491 
1606.320485  	-0.005271 
1607.752143  	-0.007275 
1609.183801  	-0.009710 
1610.615459  	-0.011740 
1612.047117  	-0.013309 
1613.478775  	-0.014225 
1614.910434  	-0.014261 
1616.342092  	-0.014740 
1617.773750  	-0.016263 
1619.205408  	-0.016672 
1620.637066  	-0.016408 
1622.068725  	-0.016127 
1623.500383  	-0.016669 
1624.932041  	-0.017267 
1626.363699  	-0.016794 
1627.795357  	-0.016582 
1629.227016  	-0.016852 
1630.658674  	-0.016450 
1632.090332  	-0.015885 
1633.521990  	-0.015164 
1634.953648  	-0.014189 
1636.385306  	-0.014650 
1637.816965  	-0.014909 
1639.248623  	-0.014370 
1640.680281  	-0.014369 
1642.111939  	-0.014085 
1643.543597  	-0.013116 
1644.975256  	-0.012166 
1646.406914  	-0.011657 
1647.838572  	-0.012592 
1649.270230  	-0.012849 
1650.701888  	-0.011667 
1652.133547  	-0.010260 
1653.565205  	-0.011673 
1654.996863  	-0.013212 
1656.428521  	-0.012609 
1657.860179  	-0.012026 
1659.291837  	-0.011906 
1660.723496  	-0.011651 
1662.155154  	-0.011301 
1663.586812  	-0.011893 
1665.018470  	-0.011939 
1666.450128  	-0.011295 
1667.881787  	-0.010970 
1669.313445  	-0.010860 
1670.745103  	-0.011582 
1672.176761  	-0.012003 
1673.608419  	-0.010958 
1675.040077  	-0.010631 
1676.471736  	-0.011622 
1677.903394  	-0.010896 
1679.335052  	-0.010199 
1680.766710  	-0.010070 
1682.198368  	-0.008992 
1683.630027  	-0.008073 
1685.061685  	-0.010189 
1686.493343  	-0.009964 
1687.925001  	-0.008721 
1689.356659  	-0.008276 
1690.788318  	-0.008289 
1692.219976  	-0.007535 
1693.651634  	-0.006146 
1695.083292  	-0.004967 
1696.514950  	-0.005533 
1697.946608  	-0.004985 
1699.378267  	-0.002974 
1700.809925  	-0.003600 
1702.241583  	-0.003740 
1703.673241  	-0.001302 
1705.104899  	-0.000301 
1706.536558  	-0.000567 
1707.968216  	0.000937 
1709.399874  	0.001812 
1710.831532  	0.002480 
1712.263190  	0.003971 
1713.694849  	0.004967 
1715.126507  	0.006504 
1716.558165  	0.008399 
1717.989823  	0.008332 
1719.421481  	0.008614 
1720.853139  	0.009916 
1722.284798  	0.011545 
1723.716456  	0.013326 
1725.148114  	0.014488 
1726.579772  	0.016230 
1728.011430  	0.018137 
1729.443089  	0.019377 
1730.874747  	0.021310 
1732.306405  	0.023332 
1733.738063  	0.024748 
1735.169721  	0.025349 
1736.601379  	0.026958 
1738.033038  	0.030208 
1739.464696  	0.032934 
1740.896354  	0.034392 
1742.328012  	0.037947 
1743.759670  	0.041218 
1745.191329  	0.044755 
1746.622987  	0.050311 
1748.054645  	0.054756 
1749.486303  	0.060182 
1750.917961  	0.067750 
1752.349620  	0.074618 
1753.781278  	0.084308 
1755.212936  	0.094884 
1756.644594  	0.105951 
1758.076252  	0.121666 
1759.507910  	0.136834 
1760.939569  	0.151725 
1762.371227  	0.170118 
1763.802885  	0.183497 
1765.234543  	0.192851 
1766.666201  	0.201038 
1768.097860  	0.201373 
1769.529518  	0.198864 
1770.961176  	0.196701 
1772.392834  	0.185142 
1773.824492  	0.173584 
1775.256150  	0.165379 
1776.687809  	0.152687 
1778.119467  	0.141630 
1779.551125  	0.130692 
1780.982783  	0.115853 
1782.414441  	0.104455 
1783.846100  	0.093417 
1785.277758  	0.080223 
1786.709416  	0.069362 
1788.141074  	0.057837 
1789.572732  	0.047532 
1791.004391  	0.039396 
1792.436049  	0.026888 
1793.867707  	0.017387 
1795.299365  	0.011712 
1796.731023  	0.004219 
1798.162681  	-0.000678 
1799.594340  	-0.004730 
1801.025998  	-0.009441 
1802.457656  	-0.011522 
1803.889314  	-0.014387 
1805.320972  	-0.016586 
1806.752631  	-0.017406 
1808.184289  	-0.019450 
1809.615947  	-0.020149 
1811.047605  	-0.020640 
1812.479263  	-0.021961 
1813.910922  	-0.021816 
1815.342580  	-0.022738 
1816.774238  	-0.023662 
1818.205896  	-0.023282 
1819.637554  	-0.024067 
1821.069212  	-0.023993 
1822.500871  	-0.023637 
1823.932529  	-0.024113 
1825.364187  	-0.023579 
1826.795845  	-0.024148 
1828.227503  	-0.024347 
1829.659162  	-0.023364 
1831.090820  	-0.024591 
1832.522478  	-0.024748 
1833.954136  	-0.024287 
1835.385794  	-0.025038 
1836.817452  	-0.024450 
1838.249111  	-0.024358 
1839.680769  	-0.025050 
1841.112427  	-0.024240 
1842.544085  	-0.024028 
1843.975743  	-0.024375 
1845.407402  	-0.024871 
1846.839060  	-0.025440 
1848.270718  	-0.024549 
1849.702376  	-0.024521 
1851.134034  	-0.024839 
1852.565693  	-0.024047 
1853.997351  	-0.024772 
1855.429009  	-0.024859 
1856.860667  	-0.023832 
1858.292325  	-0.024376 
1859.723983  	-0.023935 
1861.155642  	-0.023427 
1862.587300  	-0.024247 
1864.018958  	-0.024120 
1865.450616  	-0.024373 
1866.882274  	-0.023953 
1868.313933  	-0.022653 
1869.745591  	-0.024054 
1871.177249  	-0.024062 
1872.608907  	-0.023132 
1874.040565  	-0.023765 
1875.472224  	-0.023093 
1876.903882  	-0.022672 
1878.335540  	-0.023445 
1879.767198  	-0.023071 
1881.198856  	-0.023088 
1882.630514  	-0.022951 
1884.062173  	-0.022309 
1885.493831  	-0.022294 
1886.925489  	-0.021342 
1888.357147  	-0.021027 
1889.788805  	-0.021503 
1891.220464  	-0.020335 
1892.652122  	-0.019843 
1894.083780  	-0.019583 
1895.515438  	-0.019150 
1896.947096  	-0.020118 
1898.378754  	-0.020378 
1899.810413  	-0.020270 
1901.242071  	-0.020197 
1902.673729  	-0.019065 
1904.105387  	-0.019512 
1905.537045  	-0.020612 
1906.968704  	-0.020770 
1908.400362  	-0.021627 
1909.832020  	-0.021453 
1911.263678  	-0.021315 
1912.695336  	-0.022726 
1914.126995  	-0.023050 
1915.558653  	-0.023508 
1916.990311  	-0.023949 
1918.421969  	-0.022920 
1919.853627  	-0.023295 
1921.285285  	-0.023525 
1922.716944  	-0.023074 
1924.148602  	-0.023301 
1925.580260  	-0.022550 
1927.011918  	-0.022815 
1928.443576  	-0.023821 
1929.875235  	-0.023364 
1931.306893  	-0.023941 
1932.738551  	-0.023922 
1934.170209  	-0.023004 
1935.601867  	-0.024075 
1937.033525  	-0.023925 
1938.465184  	-0.022738 
1939.896842  	-0.022489 
1941.328500  	-0.022159 
1942.760158  	-0.023447 
1944.191816  	-0.023968 
1945.623475  	-0.023077 
1947.055133  	-0.023220 
1948.486791  	-0.021460 
1949.918449  	-0.020569 
1951.350107  	-0.021997 
1952.781766  	-0.021412 
1954.213424  	-0.021986 
1955.645082  	-0.023049 
1957.076740  	-0.021693 
1958.508398  	-0.021789 
1959.940056  	-0.021186 
1961.371715  	-0.020742 
1962.803373  	-0.022182 
1964.235031  	-0.020282 
1965.666689  	-0.019804 
1967.098347  	-0.021926 
1968.530006  	-0.021583 
1969.961664  	-0.022903 
1971.393322  	-0.023007 
1972.824980  	-0.021616 
1974.256638  	-0.023461 
1975.688297  	-0.021583 
1977.119955  	-0.018616 
1978.551613  	-0.020389 
1979.983271  	-0.021112 
1981.414929  	-0.020807 
1982.846587  	-0.019910 
1984.278246  	-0.019327 
1985.709904  	-0.020540 
1987.141562  	-0.019859 
1988.573220  	-0.019770 
1990.004878  	-0.021407 
1991.436537  	-0.021177 
1992.868195  	-0.021809 
1994.299853  	-0.021621 
1995.731511  	-0.020283 
1997.163169  	-0.021284 
1998.594827  	-0.020460 
2000.026486  	-0.019826 
2001.458144  	-0.021639 
2002.889802  	-0.020209 
2004.321460  	-0.019596 
2005.753118  	-0.021010 
2007.184777  	-0.019585 
2008.616435  	-0.019595 
2010.048093  	-0.020285 
2011.479751  	-0.019971 
2012.911409  	-0.020820 
2014.343068  	-0.020607 
2015.774726  	-0.020510 
2017.206384  	-0.019428 
2018.638042  	-0.017684 
2020.069700  	-0.019680 
2021.501358  	-0.019319 
2022.933017  	-0.018438 
2024.364675  	-0.022379 
2025.796333  	-0.022378 
2027.227991  	-0.020473 
2028.659649  	-0.020745 
2030.091308  	-0.018609 
2031.522966  	-0.018784 
2032.954624  	-0.019726 
2034.386282  	-0.018492 
2035.817940  	-0.019496 
2037.249599  	-0.018664 
2038.681257  	-0.017310 
2040.112915  	-0.018264 
2041.544573  	-0.017519 
2042.976231  	-0.018317 
2044.407889  	-0.019864 
2045.839548  	-0.018649 
2047.271206  	-0.018775 
2048.702864  	-0.019307 
2050.134522  	-0.019090 
2051.566180  	-0.019053 
2052.997839  	-0.017900 
2054.429497  	-0.018401 
2055.861155  	-0.019537 
2057.292813  	-0.018777 
2058.724471  	-0.019326 
2060.156129  	-0.019803 
2061.587788  	-0.019224 
2063.019446  	-0.020370 
2064.451104  	-0.021458 
2065.882762  	-0.021577 
2067.314420  	-0.020902 
2068.746079  	-0.019716 
2070.177737  	-0.020218 
2071.609395  	-0.020178 
2073.041053  	-0.019557 
2074.472711  	-0.020634 
2075.904370  	-0.020474 
2077.336028  	-0.020128 
2078.767686  	-0.021251 
2080.199344  	-0.020946 
2081.631002  	-0.020656 
2083.062660  	-0.021044 
2084.494319  	-0.020828 
2085.925977  	-0.021084 
2087.357635  	-0.020577 
2088.789293  	-0.019861 
2090.220951  	-0.020462 
2091.652610  	-0.020415 
2093.084268  	-0.020318 
2094.515926  	-0.020527 
2095.947584  	-0.020382 
2097.379242  	-0.021449 
2098.810901  	-0.021731 
2100.242559  	-0.020424 
2101.674217  	-0.019950 
2103.105875  	-0.019809 
2104.537533  	-0.020784 
2105.969191  	-0.022223 
2107.400850  	-0.021293 
2108.832508  	-0.020368 
2110.264166  	-0.020557 
2111.695824  	-0.020028 
2113.127482  	-0.019285 
2114.559141  	-0.019010 
2115.990799  	-0.019977 
2117.422457  	-0.021241 
2118.854115  	-0.021106 
2120.285773  	-0.021063 
2121.717431  	-0.020901 
2123.149090  	-0.020276 
2124.580748  	-0.020711 
2126.012406  	-0.020443 
2127.444064  	-0.019722 
2128.875722  	-0.020201 
2130.307381  	-0.019846 
2131.739039  	-0.019481 
2133.170697  	-0.020028 
2134.602355  	-0.019787 
2136.034013  	-0.019795 
2137.465672  	-0.019394 
2138.897330  	-0.018249 
2140.328988  	-0.018300 
2141.760646  	-0.018491 
2143.192304  	-0.018622 
2144.623962  	-0.018345 
2146.055621  	-0.017534 
2147.487279  	-0.019135 
2148.918937  	-0.020356 
2150.350595  	-0.018705 
2151.782253  	-0.017532 
2153.213912  	-0.016835 
2154.645570  	-0.017719 
2156.077228  	-0.019988 
2157.508886  	-0.019206 
2158.940544  	-0.016761 
2160.372202  	-0.014104 
2161.803861  	-0.013442 
2163.235519  	-0.015826 
2164.667177  	-0.016709 
2166.098835  	-0.017441 
2167.530493  	-0.018954 
2168.962152  	-0.018707 
2170.393810  	-0.019545 
2171.825468  	-0.019429 
2173.257126  	-0.017224 
2174.688784  	-0.018128 
2176.120443  	-0.019177 
2177.552101  	-0.018258 
2178.983759  	-0.018418 
2180.415417  	-0.018021 
2181.847075  	-0.018072 
2183.278733  	-0.018248 
2184.710392  	-0.016336 
2186.142050  	-0.016359 
2187.573708  	-0.018013 
2189.005366  	-0.017968 
2190.437024  	-0.017539 
2191.868683  	-0.017243 
2193.300341  	-0.017493 
2194.731999  	-0.018141 
2196.163657  	-0.018312 
2197.595315  	-0.018805 
2199.026974  	-0.018486 
2200.458632  	-0.017628 
2201.890290  	-0.017731 
2203.321948  	-0.017248 
2204.753606  	-0.017204 
2206.185264  	-0.018244 
2207.616923  	-0.018185 
2209.048581  	-0.017817 
2210.480239  	-0.017711 
2211.911897  	-0.017568 
2213.343555  	-0.017713 
2214.775214  	-0.017473 
2216.206872  	-0.017793 
2217.638530  	-0.018277 
2219.070188  	-0.017860 
2220.501846  	-0.017915 
2221.933504  	-0.017434 
2223.365163  	-0.016810 
2224.796821  	-0.017344 
2226.228479  	-0.016245 
2227.660137  	-0.015686 
2229.091795  	-0.017763 
2230.523454  	-0.017904 
2231.955112  	-0.016766 
2233.386770  	-0.016969 
2234.818428  	-0.017060 
2236.250086  	-0.017368 
2237.681745  	-0.017384 
2239.113403  	-0.016521 
2240.545061  	-0.016618 
2241.976719  	-0.017299 
2243.408377  	-0.017560 
2244.840035  	-0.017474 
2246.271694  	-0.017452 
2247.703352  	-0.017914 
2249.135010  	-0.017500 
2250.566668  	-0.016953 
2251.998326  	-0.017973 
2253.429985  	-0.018493 
2254.861643  	-0.018154 
2256.293301  	-0.018381 
2257.724959  	-0.018336 
2259.156617  	-0.018183 
2260.588276  	-0.018353 
2262.019934  	-0.018383 
2263.451592  	-0.018366 
2264.883250  	-0.018409 
2266.314908  	-0.018969 
2267.746566  	-0.019491 
2269.178225  	-0.019295 
2270.609883  	-0.019277 
2272.041541  	-0.019006 
2273.473199  	-0.018728 
2274.904857  	-0.019486 
2276.336516  	-0.019616 
2277.768174  	-0.019170 
2279.199832  	-0.019521 
2280.631490  	-0.019588 
2282.063148  	-0.019419 
2283.494806  	-0.019604 
2284.926465  	-0.019762 
2286.358123  	-0.019940 
2287.789781  	-0.019682 
2289.221439  	-0.019451 
2290.653097  	-0.019759 
2292.084756  	-0.019390 
2293.516414  	-0.018796 
2294.948072  	-0.018889 
2296.379730  	-0.018799 
2297.811388  	-0.018512 
2299.243047  	-0.018398 
2300.674705  	-0.018210 
2302.106363  	-0.017733 
2303.538021  	-0.016938 
2304.969679  	-0.016542 
2306.401337  	-0.016305 
2307.832996  	-0.015553 
2309.264654  	-0.015215 
2310.696312  	-0.015155 
2312.127970  	-0.014639 
2313.559628  	-0.014343 
2314.991287  	-0.014065 
2316.422945  	-0.013458 
2317.854603  	-0.012823 
2319.286261  	-0.011907 
2320.717919  	-0.011035 
2322.149577  	-0.010572 
2323.581236  	-0.010405 
2325.012894  	-0.010388 
2326.444552  	-0.009808 
2327.876210  	-0.008813 
2329.307868  	-0.008105 
2330.739527  	-0.007632 
2332.171185  	-0.007634 
2333.602843  	-0.007967 
2335.034501  	-0.008155 
2336.466159  	-0.008273 
2337.897818  	-0.007828 
2339.329476  	-0.007093 
2340.761134  	-0.006802 
2342.192792  	-0.006513 
2343.624450  	-0.006535 
2345.056108  	-0.007395 
2346.487767  	-0.009290 
2347.919425  	-0.011574 
2349.351083  	-0.011824 
2350.782741  	-0.009528 
2352.214399  	-0.007147 
2353.646058  	-0.006008 
2355.077716  	-0.004573 
2356.509374  	-0.003301 
2357.941032  	-0.002997 
2359.372690  	-0.002675 
2360.804349  	-0.002195 
2362.236007  	-0.002386 
2363.667665  	-0.003295 
2365.099323  	-0.003951 
2366.530981  	-0.004480 
2367.962639  	-0.005610 
2369.394298  	-0.006819 
2370.825956  	-0.007958 
2372.257614  	-0.009104 
2373.689272  	-0.010070 
2375.120930  	-0.011137 
2376.552589  	-0.012197 
2377.984247  	-0.013383 
2379.415905  	-0.014798 
2380.847563  	-0.015818 
2382.279221  	-0.016724 
2383.710879  	-0.017712 
2385.142538  	-0.018202 
2386.574196  	-0.018536 
2388.005854  	-0.018755 
2389.437512  	-0.018491 
2390.869170  	-0.018451 
2392.300829  	-0.018769 
2393.732487  	-0.018741 
2395.164145  	-0.018488 
2396.595803  	-0.018537 
2398.027461  	-0.018733 
2399.459120  	-0.018671 
2400.890778  	-0.018654 
2402.322436  	-0.018561 
2403.754094  	-0.017903 
2405.185752  	-0.017705 
2406.617410  	-0.018253 
2408.049069  	-0.018357 
2409.480727  	-0.018213 
2410.912385  	-0.018196 
2412.344043  	-0.018221 
2413.775701  	-0.018602 
2415.207360  	-0.018751 
2416.639018  	-0.018495 
2418.070676  	-0.018529 
2419.502334  	-0.018602 
2420.933992  	-0.018524 
2422.365651  	-0.018380 
2423.797309  	-0.018285 
2425.228967  	-0.018639 
2426.660625  	-0.018957 
2428.092283  	-0.018956 
2429.523941  	-0.018888 
2430.955600  	-0.018451 
2432.387258  	-0.018285 
2433.818916  	-0.018830 
2435.250574  	-0.019038 
2436.682232  	-0.018686 
2438.113891  	-0.018333 
2439.545549  	-0.018463 
2440.977207  	-0.019011 
2442.408865  	-0.019132 
2443.840523  	-0.019049 
2445.272181  	-0.019086 
2446.703840  	-0.018683 
2448.135498  	-0.018521 
2449.567156  	-0.019087 
2450.998814  	-0.019510 
2452.430472  	-0.019426 
2453.862131  	-0.019127 
2455.293789  	-0.019085 
2456.725447  	-0.019113 
2458.157105  	-0.018808 
2459.588763  	-0.018784 
2461.020422  	-0.018966 
2462.452080  	-0.018954 
2463.883738  	-0.019140 
2465.315396  	-0.019097 
2466.747054  	-0.018809 
2468.178712  	-0.018930 
2469.610371  	-0.019001 
2471.042029  	-0.018958 
2472.473687  	-0.019034 
2473.905345  	-0.018966 
2475.337003  	-0.018939 
2476.768662  	-0.018790 
2478.200320  	-0.018540 
2479.631978  	-0.018707 
2481.063636  	-0.018947 
2482.495294  	-0.018974 
2483.926953  	-0.018813 
2485.358611  	-0.018656 
2486.790269  	-0.019007 
2488.221927  	-0.019317 
2489.653585  	-0.019290 
2491.085243  	-0.019447 
2492.516902  	-0.019452 
2493.948560  	-0.019340 
2495.380218  	-0.019156 
2496.811876  	-0.018707 
2498.243534  	-0.018993 
2499.675193  	-0.019723 
2501.106851  	-0.019809 
2502.538509  	-0.019835 
2503.970167  	-0.019882 
2505.401825  	-0.019693 
2506.833483  	-0.019583 
2508.265142  	-0.019475 
2509.696800  	-0.019488 
2511.128458  	-0.019314 
2512.560116  	-0.019015 
2513.991774  	-0.019473 
2515.423433  	-0.019797 
2516.855091  	-0.019466 
2518.286749  	-0.019505 
2519.718407  	-0.019691 
2521.150065  	-0.019865 
2522.581724  	-0.020054 
2524.013382  	-0.019785 
2525.445040  	-0.019686 
2526.876698  	-0.020014 
2528.308356  	-0.020404 
2529.740014  	-0.020551 
2531.171673  	-0.019934 
2532.603331  	-0.019667 
2534.034989  	-0.020170 
2535.466647  	-0.020060 
2536.898305  	-0.020017 
2538.329964  	-0.020327 
2539.761622  	-0.019983 
2541.193280  	-0.019882 
2542.624938  	-0.020021 
2544.056596  	-0.019664 
2545.488254  	-0.019680 
2546.919913  	-0.020105 
2548.351571  	-0.020387 
2549.783229  	-0.020361 
2551.214887  	-0.020072 
2552.646545  	-0.020272 
2554.078204  	-0.020640 
2555.509862  	-0.020515 
2556.941520  	-0.020283 
2558.373178  	-0.019899 
2559.804836  	-0.019863 
2561.236495  	-0.020470 
2562.668153  	-0.020661 
2564.099811  	-0.020622 
2565.531469  	-0.020557 
2566.963127  	-0.020019 
2568.394785  	-0.020001 
2569.826444  	-0.020565 
2571.258102  	-0.020628 
2572.689760  	-0.020448 
2574.121418  	-0.020344 
2575.553076  	-0.020222 
2576.984735  	-0.020119 
2578.416393  	-0.020038 
2579.848051  	-0.020157 
2581.279709  	-0.020253 
2582.711367  	-0.020297 
2584.143026  	-0.020701 
2585.574684  	-0.020822 
2587.006342  	-0.020224 
2588.438000  	-0.019775 
2589.869658  	-0.019838 
2591.301316  	-0.019952 
2592.732975  	-0.019936 
2594.164633  	-0.019992 
2595.596291  	-0.020158 
2597.027949  	-0.020320 
2598.459607  	-0.020533 
2599.891266  	-0.020687 
2601.322924  	-0.020738 
2602.754582  	-0.020882 
2604.186240  	-0.020873 
2605.617898  	-0.020527 
2607.049556  	-0.020211 
2608.481215  	-0.020244 
2609.912873  	-0.020527 
2611.344531  	-0.020627 
2612.776189  	-0.020587 
2614.207847  	-0.020781 
2615.639506  	-0.020916 
2617.071164  	-0.020742 
2618.502822  	-0.020446 
2619.934480  	-0.020219 
2621.366138  	-0.020309 
2622.797797  	-0.020586 
2624.229455  	-0.020924 
2625.661113  	-0.021280 
2627.092771  	-0.021258 
2628.524429  	-0.021134 
2629.956087  	-0.021175 
2631.387746  	-0.021009 
2632.819404  	-0.021009 
2634.251062  	-0.021165 
2635.682720  	-0.021009 
2637.114378  	-0.020958 
2638.546037  	-0.020876 
2639.977695  	-0.020688 
2641.409353  	-0.020915 
2642.841011  	-0.021014 
2644.272669  	-0.020942 
2645.704328  	-0.021170 
2647.135986  	-0.021043 
2648.567644  	-0.020681 
2649.999302  	-0.020672 
2651.430960  	-0.020694 
2652.862618  	-0.020741 
2654.294277  	-0.020831 
2655.725935  	-0.020839 
2657.157593  	-0.020919 
2658.589251  	-0.020860 
2660.020909  	-0.020636 
2661.452568  	-0.020456 
2662.884226  	-0.020322 
2664.315884  	-0.020442 
2665.747542  	-0.020659 
2667.179200  	-0.020690 
2668.610858  	-0.020677 
2670.042517  	-0.020537 
2671.474175  	-0.020417 
2672.905833  	-0.020447 
2674.337491  	-0.020315 
2675.769149  	-0.020301 
2677.200808  	-0.020499 
2678.632466  	-0.020545 
2680.064124  	-0.020534 
2681.495782  	-0.020307 
2682.927440  	-0.019996 
2684.359099  	-0.020160 
2685.790757  	-0.020376 
2687.222415  	-0.020360 
2688.654073  	-0.020428 
2690.085731  	-0.020384 
2691.517389  	-0.020194 
2692.949048  	-0.020125 
2694.380706  	-0.020247 
2695.812364  	-0.020412 
2697.244022  	-0.020335 
2698.675680  	-0.020211 
2700.107339  	-0.020227 
2701.538997  	-0.020218 
2702.970655  	-0.020359 
2704.402313  	-0.020463 
2705.833971  	-0.020238 
2707.265630  	-0.020090 
2708.697288  	-0.020055 
2710.128946  	-0.019981 
2711.560604  	-0.019975 
2712.992262  	-0.019941 
2714.423920  	-0.020026 
2715.855579  	-0.020191 
2717.287237  	-0.020097 
2718.718895  	-0.019941 
2720.150553  	-0.019885 
2721.582211  	-0.019992 
2723.013870  	-0.020275 
2724.445528  	-0.020225 
2725.877186  	-0.019923 
2727.308844  	-0.019895 
2728.740502  	-0.020003 
2730.172160  	-0.020052 
2731.603819  	-0.020011 
2733.035477  	-0.019984 
2734.467135  	-0.020109 
2735.898793  	-0.020089 
2737.330451  	-0.019971 
2738.762110  	-0.020049 
2740.193768  	-0.020052 
2741.625426  	-0.019919 
2743.057084  	-0.019934 
2744.488742  	-0.020158 
2745.920401  	-0.020385 
2747.352059  	-0.020351 
2748.783717  	-0.020252 
2750.215375  	-0.020169 
2751.647033  	-0.019943 
2753.078691  	-0.019998 
2754.510350  	-0.020264 
2755.942008  	-0.020168 
2757.373666  	-0.019997 
2758.805324  	-0.019950 
2760.236982  	-0.019842 
2761.668641  	-0.019766 
2763.100299  	-0.019683 
2764.531957  	-0.019612 
2765.963615  	-0.019613 
2767.395273  	-0.019625 
2768.826931  	-0.019687 
2770.258590  	-0.019552 
2771.690248  	-0.019245 
2773.121906  	-0.019196 
2774.553564  	-0.019229 
2775.985222  	-0.019195 
2777.416881  	-0.019206 
2778.848539  	-0.019160 
2780.280197  	-0.019239 
2781.711855  	-0.019371 
2783.143513  	-0.019250 
2784.575172  	-0.019234 
2786.006830  	-0.019454 
2787.438488  	-0.019569 
2788.870146  	-0.019534 
2790.301804  	-0.019490 
2791.733462  	-0.019498 
2793.165121  	-0.019367 
2794.596779  	-0.019183 
2796.028437  	-0.019257 
2797.460095  	-0.019266 
2798.891753  	-0.019174 
2800.323412  	-0.019374 
2801.755070  	-0.019517 
2803.186728  	-0.019394 
2804.618386  	-0.019284 
2806.050044  	-0.019211 
2807.481703  	-0.019190 
2808.913361  	-0.019168 
2810.345019  	-0.019136 
2811.776677  	-0.019200 
2813.208335  	-0.019182 
2814.639993  	-0.019147 
2816.071652  	-0.019221 
2817.503310  	-0.019171 
2818.934968  	-0.019066 
2820.366626  	-0.018977 
2821.798284  	-0.018900 
2823.229943  	-0.019030 
2824.661601  	-0.019162 
2826.093259  	-0.019176 
2827.524917  	-0.019166 
2828.956575  	-0.018928 
2830.388233  	-0.018749 
2831.819892  	-0.018992 
2833.251550  	-0.019237 
2834.683208  	-0.019125 
2836.114866  	-0.018748 
2837.546524  	-0.018442 
2838.978183  	-0.018362 
2840.409841  	-0.018232 
2841.841499  	-0.018118 
2843.273157  	-0.018154 
2844.704815  	-0.017990 
2846.136474  	-0.017626 
2847.568132  	-0.017377 
2848.999790  	-0.017270 
2850.431448  	-0.017182 
2851.863106  	-0.016983 
2853.294764  	-0.016690 
2854.726423  	-0.016356 
2856.158081  	-0.016065 
2857.589739  	-0.015923 
2859.021397  	-0.015684 
2860.453055  	-0.015207 
2861.884714  	-0.014555 
2863.316372  	-0.013665 
2864.748030  	-0.012847 
2866.179688  	-0.012159 
2867.611346  	-0.011183 
2869.043005  	-0.010254 
2870.474663  	-0.009694 
2871.906321  	-0.009291 
2873.337979  	-0.009319 
2874.769637  	-0.009805 
2876.201295  	-0.010239 
2877.632954  	-0.010678 
2879.064612  	-0.011324 
2880.496270  	-0.011955 
2881.927928  	-0.012379 
2883.359586  	-0.012760 
2884.791245  	-0.013185 
2886.222903  	-0.013290 
2887.654561  	-0.013160 
2889.086219  	-0.013211 
2890.517877  	-0.013200 
2891.949535  	-0.013129 
2893.381194  	-0.013259 
2894.812852  	-0.013301 
2896.244510  	-0.013398 
2897.676168  	-0.013698 
2899.107826  	-0.013632 
2900.539485  	-0.013346 
2901.971143  	-0.013348 
2903.402801  	-0.013312 
2904.834459  	-0.013007 
2906.266117  	-0.012654 
2907.697776  	-0.012338 
2909.129434  	-0.012081 
2910.561092  	-0.011900 
2911.992750  	-0.011758 
2913.424408  	-0.011685 
2914.856066  	-0.011721 
2916.287725  	-0.011854 
2917.719383  	-0.012014 
2919.151041  	-0.011978 
2920.582699  	-0.011612 
2922.014357  	-0.011135 
2923.446016  	-0.010597 
2924.877674  	-0.009827 
2926.309332  	-0.009093 
2927.740990  	-0.008558 
2929.172648  	-0.007870 
2930.604306  	-0.007048 
2932.035965  	-0.006532 
2933.467623  	-0.006482 
2934.899281  	-0.006656 
2936.330939  	-0.006704 
2937.762597  	-0.006700 
2939.194256  	-0.006900 
2940.625914  	-0.007151 
2942.057572  	-0.007382 
2943.489230  	-0.007704 
2944.920888  	-0.007853 
2946.352547  	-0.007697 
2947.784205  	-0.007549 
2949.215863  	-0.007389 
2950.647521  	-0.006863 
2952.079179  	-0.005957 
2953.510837  	-0.004853 
2954.942496  	-0.003586 
2956.374154  	-0.002153 
2957.805812  	-0.000352 
2959.237470  	0.001901 
2960.669128  	0.004137 
2962.100787  	0.006091 
2963.532445  	0.007847 
2964.964103  	0.009243 
2966.395761  	0.010082 
2967.827419  	0.010286 
2969.259078  	0.009908 
2970.690736  	0.009076 
2972.122394  	0.007727 
2973.554052  	0.005868 
2974.985710  	0.003795 
2976.417368  	0.001713 
2977.849027  	-0.000388 
2979.280685  	-0.002536 
2980.712343  	-0.004657 
2982.144001  	-0.006596 
2983.575659  	-0.008366 
2985.007318  	-0.009997 
2986.438976  	-0.011420 
2987.870634  	-0.012884 
2989.302292  	-0.014371 
2990.733950  	-0.015471 
2992.165608  	-0.016308 
2993.597267  	-0.017058 
2995.028925  	-0.017736 
2996.460583  	-0.018545 
2997.892241  	-0.019235 
2999.323899  	-0.019659 
3000.755558  	-0.020106 
3002.187216  	-0.020468 
3003.618874  	-0.020776 
3005.050532  	-0.021109 
3006.482190  	-0.021194 
3007.913849  	-0.021322 
3009.345507  	-0.021661 
3010.777165  	-0.021718 
3012.208823  	-0.021658 
3013.640481  	-0.021916 
3015.072139  	-0.022125 
3016.503798  	-0.021970 
3017.935456  	-0.021869 
3019.367114  	-0.022099 
3020.798772  	-0.022298 
3022.230430  	-0.022204 
3023.662089  	-0.021897 
3025.093747  	-0.021675 
3026.525405  	-0.021828 
3027.957063  	-0.021732 
3029.388721  	-0.020921 
3030.820380  	-0.020174 
3032.252038  	-0.019622 
3033.683696  	-0.018894 
3035.115354  	-0.018454 
3036.547012  	-0.018196 
3037.978670  	-0.017686 
3039.410329  	-0.017275 
3040.841987  	-0.017096 
3042.273645  	-0.017139 
3043.705303  	-0.017533 
3045.136961  	-0.017921 
3046.568620  	-0.018062 
3048.000278  	-0.018256 
3049.431936  	-0.018647 
3050.863594  	-0.018908 
3052.295252  	-0.018641 
3053.726910  	-0.018116 
3055.158569  	-0.017927 
3056.590227  	-0.018080 
3058.021885  	-0.018282 
3059.453543  	-0.018441 
3060.885201  	-0.018495 
3062.316860  	-0.018370 
3063.748518  	-0.018278 
3065.180176  	-0.018539 
3066.611834  	-0.019017 
3068.043492  	-0.019423 
3069.475151  	-0.019702 
3070.906809  	-0.019826 
3072.338467  	-0.019947 
3073.770125  	-0.020223 
3075.201783  	-0.020534 
3076.633441  	-0.020753 
3078.065100  	-0.020837 
3079.496758  	-0.020983 
3080.928416  	-0.021133 
3082.360074  	-0.020961 
3083.791732  	-0.021118 
3085.223391  	-0.021789 
3086.655049  	-0.021951 
3088.086707  	-0.021937 
3089.518365  	-0.022243 
3090.950023  	-0.022135 
3092.381682  	-0.022028 
3093.813340  	-0.022405 
3095.244998  	-0.022522 
3096.676656  	-0.022427 
3098.108314  	-0.022479 
3099.539972  	-0.022505 
3100.971631  	-0.022482 
3102.403289  	-0.022319 
3103.834947  	-0.022143 
3105.266605  	-0.022213 
3106.698263  	-0.022409 
3108.129922  	-0.022534 
3109.561580  	-0.022444 
3110.993238  	-0.022434 
3112.424896  	-0.022647 
3113.856554  	-0.022584 
3115.288212  	-0.022569 
3116.719871  	-0.022915 
3118.151529  	-0.022963 
3119.583187  	-0.022881 
3121.014845  	-0.022950 
3122.446503  	-0.022803 
3123.878162  	-0.022735 
3125.309820  	-0.022951 
3126.741478  	-0.023199 
3128.173136  	-0.023294 
3129.604794  	-0.023015 
3131.036453  	-0.022956 
3132.468111  	-0.023600 
3133.899769  	-0.024064 
3135.331427  	-0.023859 
3136.763085  	-0.023540 
3138.194743  	-0.023470 
3139.626402  	-0.023565 
3141.058060  	-0.023634 
3142.489718  	-0.023630 
3143.921376  	-0.023548 
3145.353034  	-0.023665 
3146.784693  	-0.024110 
3148.216351  	-0.024166 
3149.648009  	-0.023922 
3151.079667  	-0.024122 
3152.511325  	-0.024214 
3153.942983  	-0.023931 
3155.374642  	-0.023814 
3156.806300  	-0.023758 
3158.237958  	-0.023800 
3159.669616  	-0.023980 
3161.101274  	-0.023953 
3162.532933  	-0.023883 
3163.964591  	-0.023854 
3165.396249  	-0.023810 
3166.827907  	-0.023883 
3168.259565  	-0.023956 
3169.691224  	-0.024062 
3171.122882  	-0.024049 
3172.554540  	-0.023796 
3173.986198  	-0.023920 
3175.417856  	-0.024215 
3176.849514  	-0.024072 
3178.281173  	-0.023996 
3179.712831  	-0.024109 
3181.144489  	-0.024068 
3182.576147  	-0.024106 
3184.007805  	-0.024184 
3185.439464  	-0.023961 
3186.871122  	-0.023489 
3188.302780  	-0.023338 
3189.734438  	-0.023764 
3191.166096  	-0.023996 
3192.597755  	-0.023821 
3194.029413  	-0.023881 
3195.461071  	-0.024034 
3196.892729  	-0.024096 
3198.324387  	-0.024216 
3199.756045  	-0.024058 
3201.187704  	-0.023775 
3202.619362  	-0.023890 
3204.051020  	-0.024152 
3205.482678  	-0.024216 
3206.914336  	-0.024153 
3208.345995  	-0.024037 
3209.777653  	-0.023977 
3211.209311  	-0.024059 
3212.640969  	-0.024084 
3214.072627  	-0.024059 
3215.504285  	-0.024216 
3216.935944  	-0.024155 
3218.367602  	-0.023708 
3219.799260  	-0.023668 
3221.230918  	-0.024034 
3222.662576  	-0.024181 
3224.094235  	-0.024327 
3225.525893  	-0.024463 
3226.957551  	-0.024294 
3228.389209  	-0.024183 
3229.820867  	-0.024276 
3231.252526  	-0.024306 
3232.684184  	-0.024228 
3234.115842  	-0.024179 
3235.547500  	-0.024254 
3236.979158  	-0.024273 
3238.410816  	-0.024176 
3239.842475  	-0.024274 
3241.274133  	-0.024540 
3242.705791  	-0.024589 
3244.137449  	-0.024361 
3245.569107  	-0.024232 
3247.000766  	-0.024334 
3248.432424  	-0.024320 
3249.864082  	-0.024301 
3251.295740  	-0.024515 
3252.727398  	-0.024630 
3254.159057  	-0.024628 
3255.590715  	-0.024557 
3257.022373  	-0.024224 
3258.454031  	-0.024102 
3259.885689  	-0.024472 
3261.317347  	-0.024771 
3262.749006  	-0.024624 
3264.180664  	-0.024139 
3265.612322  	-0.023869 
3267.043980  	-0.024249 
3268.475638  	-0.024737 
3269.907297  	-0.024606 
3271.338955  	-0.024111 
3272.770613  	-0.024101 
3274.202271  	-0.024544 
3275.633929  	-0.024639 
3277.065587  	-0.024471 
3278.497246  	-0.024376 
3279.928904  	-0.024244 
3281.360562  	-0.024414 
3282.792220  	-0.024754 
3284.223878  	-0.024704 
3285.655537  	-0.024572 
3287.087195  	-0.024457 
3288.518853  	-0.024252 
3289.950511  	-0.024316 
3291.382169  	-0.024507 
3292.813828  	-0.024698 
3294.245486  	-0.024903 
3295.677144  	-0.024723 
3297.108802  	-0.024582 
3298.540460  	-0.024883 
3299.972118  	-0.024792 
3301.403777  	-0.024317 
3302.835435  	-0.024324 
3304.267093  	-0.024559 
3305.698751  	-0.024620 
3307.130409  	-0.024851 
3308.562068  	-0.025087 
3309.993726  	-0.024999 
3311.425384  	-0.024950 
3312.857042  	-0.024934 
3314.288700  	-0.024809 
3315.720359  	-0.024898 
3317.152017  	-0.024894 
3318.583675  	-0.024696 
3320.015333  	-0.024837 
3321.446991  	-0.024920 
3322.878649  	-0.024849 
3324.310308  	-0.025095 
3325.741966  	-0.025018 
3327.173624  	-0.024577 
3328.605282  	-0.024669 
3330.036940  	-0.025121 
3331.468599  	-0.025317 
3332.900257  	-0.024977 
3334.331915  	-0.024458 
3335.763573  	-0.024425 
3337.195231  	-0.024505 
3338.626889  	-0.024456 
3340.058548  	-0.024739 
3341.490206  	-0.025088 
3342.921864  	-0.025121 
3344.353522  	-0.024835 
3345.785180  	-0.024606 
3347.216839  	-0.024935 
3348.648497  	-0.025044 
3350.080155  	-0.024443 
3351.511813  	-0.024214 
3352.943471  	-0.024610 
3354.375130  	-0.025008 
3355.806788  	-0.025124 
3357.238446  	-0.024871 
3358.670104  	-0.024705 
3360.101762  	-0.024843 
3361.533420  	-0.024971 
3362.965079  	-0.025021 
3364.396737  	-0.024942 
3365.828395  	-0.024854 
3367.260053  	-0.024763 
3368.691711  	-0.024510 
3370.123370  	-0.024611 
3371.555028  	-0.025022 
3372.986686  	-0.025097 
3374.418344  	-0.025040 
3375.850002  	-0.025043 
3377.281660  	-0.025099 
3378.713319  	-0.025223 
3380.144977  	-0.025153 
3381.576635  	-0.025036 
3383.008293  	-0.024876 
3384.439951  	-0.024779 
3385.871610  	-0.025291 
3387.303268  	-0.025523 
3388.734926  	-0.024995 
3390.166584  	-0.024841 
3391.598242  	-0.024854 
3393.029901  	-0.024572 
3394.461559  	-0.024470 
3395.893217  	-0.024422 
3397.324875  	-0.024674 
3398.756533  	-0.025160 
3400.188191  	-0.024960 
3401.619850  	-0.024632 
3403.051508  	-0.024882 
3404.483166  	-0.025092 
3405.914824  	-0.024958 
3407.346482  	-0.024799 
3408.778141  	-0.024828 
3410.209799  	-0.024833 
3411.641457  	-0.024796 
3413.073115  	-0.025052 
3414.504773  	-0.025214 
3415.936432  	-0.025156 
3417.368090  	-0.025269 
3418.799748  	-0.025161 
3420.231406  	-0.024873 
3421.663064  	-0.024826 
3423.094722  	-0.024728 
3424.526381  	-0.024683 
3425.958039  	-0.024766 
3427.389697  	-0.024749 
3428.821355  	-0.024776 
3430.253013  	-0.024748 
3431.684672  	-0.024728 
3433.116330  	-0.024799 
3434.547988  	-0.024654 
3435.979646  	-0.024614 
3437.411304  	-0.024720 
3438.842962  	-0.024529 
3440.274621  	-0.024314 
3441.706279  	-0.024264 
3443.137937  	-0.024435 
3444.569595  	-0.024674 
3446.001253  	-0.024545 
3447.432912  	-0.024613 
3448.864570  	-0.024986 
3450.296228  	-0.024958 
3451.727886  	-0.024867 
3453.159544  	-0.024659 
3454.591203  	-0.024368 
3456.022861  	-0.024686 
3457.454519  	-0.024784 
3458.886177  	-0.024280 
3460.317835  	-0.024283 
3461.749493  	-0.024574 
3463.181152  	-0.024558 
3464.612810  	-0.024494 
3466.044468  	-0.024554 
3467.476126  	-0.024760 
3468.907784  	-0.024788 
3470.339443  	-0.024579 
3471.771101  	-0.024507 
3473.202759  	-0.024480 
3474.634417  	-0.024475 
3476.066075  	-0.024590 
3477.497734  	-0.024699 
3478.929392  	-0.024646 
3480.361050  	-0.024244 
3481.792708  	-0.024064 
3483.224366  	-0.024359 
3484.656024  	-0.024302 
3486.087683  	-0.024326 
3487.519341  	-0.024782 
3488.950999  	-0.024758 
3490.382657  	-0.024587 
3491.814315  	-0.024700 
3493.245974  	-0.024714 
3494.677632  	-0.024913 
3496.109290  	-0.025023 
3497.540948  	-0.024595 
3498.972606  	-0.024191 
3500.404264  	-0.023939 
3501.835923  	-0.023883 
3503.267581  	-0.024241 
3504.699239  	-0.024413 
3506.130897  	-0.024184 
3507.562555  	-0.024068 
3508.994214  	-0.024268 
3510.425872  	-0.024555 
3511.857530  	-0.024431 
3513.289188  	-0.024014 
3514.720846  	-0.023857 
3516.152505  	-0.023902 
3517.584163  	-0.023792 
3519.015821  	-0.023656 
3520.447479  	-0.023523 
3521.879137  	-0.023220 
3523.310795  	-0.023413 
3524.742454  	-0.024132 
3526.174112  	-0.023931 
3527.605770  	-0.023367 
3529.037428  	-0.023657 
3530.469086  	-0.023900 
3531.900745  	-0.023978 
3533.332403  	-0.024195 
3534.764061  	-0.023958 
3536.195719  	-0.023960 
3537.627377  	-0.024294 
3539.059035  	-0.024011 
3540.490694  	-0.023978 
3541.922352  	-0.024233 
3543.354010  	-0.023857 
3544.785668  	-0.023626 
3546.217326  	-0.024076 
3547.648985  	-0.024657 
3549.080643  	-0.024883 
3550.512301  	-0.024476 
3551.943959  	-0.024102 
3553.375617  	-0.024386 
3554.807276  	-0.024777 
3556.238934  	-0.024816 
3557.670592  	-0.024430 
3559.102250  	-0.024124 
3560.533908  	-0.024400 
3561.965566  	-0.024645 
3563.397225  	-0.024250 
3564.828883  	-0.023265 
3566.260541  	-0.022786 
3567.692199  	-0.024370 
3569.123857  	-0.025516 
3570.555516  	-0.024853 
3571.987174  	-0.024483 
3573.418832  	-0.024399 
3574.850490  	-0.024075 
3576.282148  	-0.024208 
3577.713807  	-0.024884 
3579.145465  	-0.025471 
3580.577123  	-0.025397 
3582.008781  	-0.024807 
3583.440439  	-0.024317 
3584.872097  	-0.023617 
3586.303756  	-0.022966 
3587.735414  	-0.024019 
3589.167072  	-0.025854 
3590.598730  	-0.025824 
3592.030388  	-0.024895 
3593.462047  	-0.023968 
3594.893705  	-0.023636 
3596.325363  	-0.024458 
3597.757021  	-0.025398 
3599.188679  	-0.025240 
3600.620337  	-0.024894 
3602.051996  	-0.025194 
3603.483654  	-0.025123 
3604.915312  	-0.024836 
3606.346970  	-0.024908 
3607.778628  	-0.025155 
3609.210287  	-0.026027 
3610.641945  	-0.025995 
3612.073603  	-0.024522 
3613.505261  	-0.024560 
3614.936919  	-0.025794 
3616.368578  	-0.025000 
3617.800236  	-0.023836 
3619.231894  	-0.024366 
3620.663552  	-0.025789 
3622.095210  	-0.026012 
3623.526868  	-0.025249 
3624.958527  	-0.024803 
3626.390185  	-0.024081 
3627.821843  	-0.022464 
3629.253501  	-0.023403 
3630.685159  	-0.025922 
3632.116818  	-0.024604 
3633.548476  	-0.024068 
3634.980134  	-0.025355 
3636.411792  	-0.025660 
3637.843450  	-0.025749 
3639.275109  	-0.026262 
3640.706767  	-0.025772 
3642.138425  	-0.025289 
3643.570083  	-0.025753 
3645.001741  	-0.025293 
3646.433399  	-0.023535 
3647.865058  	-0.022459 
3649.296716  	-0.022867 
3650.728374  	-0.024623 
3652.160032  	-0.027098 
3653.591690  	-0.026146 
3655.023349  	-0.024130 
3656.455007  	-0.024947 
3657.886665  	-0.026437 
3659.318323  	-0.025403 
3660.749981  	-0.024923 
3662.181639  	-0.025164 
3663.613298  	-0.025123 
3665.044956  	-0.025161 
3666.476614  	-0.024755 
3667.908272  	-0.023774 
3669.339930  	-0.023277 
3670.771589  	-0.025003 
3672.203247  	-0.025571 
3673.634905  	-0.022920 
3675.066563  	-0.021731 
3676.498221  	-0.026808 
3677.929880  	-0.026805 
3679.361538  	-0.025457 
3680.793196  	-0.026257 
3682.224854  	-0.025796 
3683.656512  	-0.025088 
3685.088170  	-0.025004 
3686.519829  	-0.023500 
3687.951487  	-0.022957 
3689.383145  	-0.025581 
3690.814803  	-0.026311 
3692.246461  	-0.026107 
3693.678120  	-0.026346 
3695.109778  	-0.025772 
3696.541436  	-0.025497 
3697.973094  	-0.025616 
3699.404752  	-0.025032 
3700.836411  	-0.024783 
3702.268069  	-0.025919 
3703.699727  	-0.026685 
3705.131385  	-0.026136 
3706.563043  	-0.025358 
3707.994701  	-0.024773 
3709.426360  	-0.024270 
3710.858018  	-0.024259 
3712.289676  	-0.025491 
3713.721334  	-0.027263 
3715.152992  	-0.027535 
3716.584651  	-0.026512 
3718.016309  	-0.025913 
3719.447967  	-0.025964 
3720.879625  	-0.025224 
3722.311283  	-0.024502 
3723.742941  	-0.024830 
3725.174600  	-0.024857 
3726.606258  	-0.025108 
3728.037916  	-0.026209 
3729.469574  	-0.025874 
3730.901232  	-0.024726 
3732.332891  	-0.024628 
3733.764549  	-0.024127 
3735.196207  	-0.023135 
3736.627865  	-0.025806 
3738.059523  	-0.027183 
3739.491182  	-0.025983 
3740.922840  	-0.026110 
3742.354498  	-0.025152 
3743.786156  	-0.023113 
3745.217814  	-0.027362 
3746.649472  	-0.028605 
3748.081131  	-0.025114 
3749.512789  	-0.024325 
3750.944447  	-0.025541 
3752.376105  	-0.026000 
3753.807763  	-0.027739 
3755.239422  	-0.027129 
3756.671080  	-0.026040 
3758.102738  	-0.026706 
3759.534396  	-0.026816 
3760.966054  	-0.027240 
3762.397712  	-0.027908 
3763.829371  	-0.026756 
3765.261029  	-0.026262 
3766.692687  	-0.027072 
3768.124345  	-0.026452 
3769.556003  	-0.026355 
3770.987662  	-0.027746 
3772.419320  	-0.027746 
3773.850978  	-0.027052 
3775.282636  	-0.027028 
3776.714294  	-0.027069 
3778.145953  	-0.026389 
3779.577611  	-0.026242 
3781.009269  	-0.027201 
3782.440927  	-0.026811 
3783.872585  	-0.025978 
3785.304243  	-0.026459 
3786.735902  	-0.026873 
3788.167560  	-0.026690 
3789.599218  	-0.026783 
3791.030876  	-0.026856 
3792.462534  	-0.026823 
3793.894193  	-0.026451 
3795.325851  	-0.025921 
3796.757509  	-0.026161 
3798.189167  	-0.025975 
3799.620825  	-0.024448 
3801.052484  	-0.023912 
3802.484142  	-0.026841 
3803.915800  	-0.027346 
3805.347458  	-0.025370 
3806.779116  	-0.025751 
3808.210774  	-0.028737 
3809.642433  	-0.027931 
3811.074091  	-0.026510 
3812.505749  	-0.026343 
3813.937407  	-0.025277 
3815.369065  	-0.024713 
3816.800724  	-0.027256 
3818.232382  	-0.026702 
3819.664040  	-0.023996 
3821.095698  	-0.024714 
3822.527356  	-0.028430 
3823.959014  	-0.027210 
3825.390673  	-0.025695 
3826.822331  	-0.026498 
3828.253989  	-0.026945 
3829.685647  	-0.025884 
3831.117305  	-0.025830 
3832.548964  	-0.026601 
3833.980622  	-0.026263 
3835.412280  	-0.025413 
3836.843938  	-0.024963 
3838.275596  	-0.025406 
3839.707255  	-0.026327 
3841.138913  	-0.026372 
3842.570571  	-0.026092 
3844.002229  	-0.026600 
3845.433887  	-0.027379 
3846.865545  	-0.026934 
3848.297204  	-0.025988 
3849.728862  	-0.025632 
3851.160520  	-0.024539 
3852.592178  	-0.022633 
3854.023836  	-0.025032 
3855.455495  	-0.027914 
3856.887153  	-0.027147 
3858.318811  	-0.027039 
3859.750469  	-0.026754 
3861.182127  	-0.026051 
3862.613786  	-0.025581 
3864.045444  	-0.024903 
3865.477102  	-0.025869 
3866.908760  	-0.026681 
3868.340418  	-0.024633 
3869.772076  	-0.024281 
3871.203735  	-0.027418 
3872.635393  	-0.026413 
3874.067051  	-0.025533 
3875.498709  	-0.027189 
3876.930367  	-0.026711 
3878.362026  	-0.025219 
3879.793684  	-0.025377 
3881.225342  	-0.026973 
3882.657000  	-0.026770 
3884.088658  	-0.024784 
3885.520316  	-0.024354 
3886.951975  	-0.026876 
3888.383633  	-0.026631 
3889.815291  	-0.025121 
3891.246949  	-0.025672 
3892.678607  	-0.027290 
3894.110266  	-0.027378 
3895.541924  	-0.026713 
3896.973582  	-0.025576 
3898.405240  	-0.024780 
3899.836898  	-0.025395 
3901.268557  	-0.025949 
3902.700215  	-0.025305 
3904.131873  	-0.025398 
3905.563531  	-0.026567 
3906.995189  	-0.026833 
3908.426847  	-0.026535 
3909.858506  	-0.026428 
3911.290164  	-0.026605 
3912.721822  	-0.027050 
3914.153480  	-0.026926 
3915.585138  	-0.026102 
3917.016797  	-0.025708 
3918.448455  	-0.025938 
3919.880113  	-0.026203 
3921.311771  	-0.026289 
3922.743429  	-0.025743 
3924.175088  	-0.025514 
3925.606746  	-0.026381 
3927.038404  	-0.026668 
3928.470062  	-0.026240 
3929.901720  	-0.026046 
3931.333378  	-0.025927 
3932.765037  	-0.026277 
3934.196695  	-0.026917 
3935.628353  	-0.026793 
3937.060011  	-0.026561 
3938.491669  	-0.026551 
3939.923328  	-0.026105 
3941.354986  	-0.025622 
3942.786644  	-0.025849 
3944.218302  	-0.026426 
3945.649960  	-0.026407 
3947.081618  	-0.026040 
3948.513277  	-0.026199 
3949.944935  	-0.026600 
3951.376593  	-0.026474 
3952.808251  	-0.026390 
3954.239909  	-0.026630 
3955.671568  	-0.026743 
3957.103226  	-0.026768 
3958.534884  	-0.026784 
3959.966542  	-0.026609 
3961.398200  	-0.026387 
3962.829859  	-0.026392 
3964.261517  	-0.026479 
3965.693175  	-0.026344 
3967.124833  	-0.026266 
3968.556491  	-0.026437 
3969.988149  	-0.026347 
3971.419808  	-0.026122 
3972.851466  	-0.026346 
3974.283124  	-0.026527 
3975.714782  	-0.026201 
3977.146440  	-0.025964 
3978.578099  	-0.026161 
3980.009757  	-0.026382 
3981.441415  	-0.026303 
3982.873073  	-0.026086 
3984.304731  	-0.026151 
3985.736389  	-0.026537 
3987.168048  	-0.026623 
3988.599706  	-0.026113 
3990.031364  	-0.025815 
3991.463022  	-0.026098 
3992.894680  	-0.026206 
3994.326339  	-0.026135 
3995.757997  	-0.026343 
3997.189655  	-0.026493 
3998.621313  	-0.026398 
4000.052971  	-0.026180 