##TITLE=No Description
##DATA TYPE=INFRARED SPECTRUM
##XUNITS=1/CM
##YUNITS=Abs
399.432634  	0.342536 
400.864292  	0.296650 
402.295950  	0.294737 
403.727608  	0.334221 
405.159267  	0.348632 
406.590925  	0.326467 
408.022583  	0.309291 
409.454241  	0.317556 
410.885899  	0.343752 
412.317558  	0.340937 
413.749216  	0.310584 
415.180874  	0.323784 
416.612532  	0.362670 
418.044190  	0.361947 
419.475848  	0.306503 
420.907507  	0.293198 
422.339165  	0.302042 
423.770823  	0.297652 
425.202481  	0.294946 
426.634139  	0.314441 
428.065798  	0.325508 
429.497456  	0.308908 
430.929114  	0.296355 
432.360772  	0.291873 
433.792430  	0.281172 
435.224089  	0.275843 
436.655747  	0.286601 
438.087405  	0.297191 
439.519063  	0.290688 
440.950721  	0.277897 
442.382379  	0.276147 
443.814038  	0.279405 
445.245696  	0.272259 
446.677354  	0.265057 
448.109012  	0.268334 
449.540670  	0.270670 
450.972329  	0.269732 
452.403987  	0.272907 
453.835645  	0.271181 
455.267303  	0.263125 
456.698961  	0.256337 
458.130619  	0.252227 
459.562278  	0.259549 
460.993936  	0.272860 
462.425594  	0.272737 
463.857252  	0.263350 
465.288910  	0.270851 
466.720569  	0.289476 
468.152227  	0.287254 
469.583885  	0.271777 
471.015543  	0.274038 
472.447201  	0.286300 
473.878860  	0.290168 
475.310518  	0.294546 
476.742176  	0.294608 
478.173834  	0.294629 
479.605492  	0.311567 
481.037150  	0.322431 
482.468809  	0.315011 
483.900467  	0.318190 
485.332125  	0.333333 
486.763783  	0.346280 
488.195441  	0.354435 
489.627100  	0.349638 
491.058758  	0.344707 
492.490416  	0.353016 
493.922074  	0.359111 
495.353732  	0.362593 
496.785391  	0.372614 
498.217049  	0.380983 
499.648707  	0.384635 
501.080365  	0.390794 
502.512023  	0.399036 
503.943681  	0.401511 
505.375340  	0.400879 
506.806998  	0.402756 
508.238656  	0.400474 
509.670314  	0.393025 
511.101972  	0.386828 
512.533631  	0.377254 
513.965289  	0.364378 
515.396947  	0.354939 
516.828605  	0.347172 
518.260263  	0.340836 
519.691921  	0.338599 
521.123580  	0.339303 
522.555238  	0.340210 
523.986896  	0.339882 
525.418554  	0.341480 
526.850212  	0.343403 
528.281871  	0.341909 
529.713529  	0.343659 
531.145187  	0.348300 
532.576845  	0.348518 
534.008503  	0.349170 
535.440162  	0.353587 
536.871820  	0.356318 
538.303478  	0.354753 
539.735136  	0.351356 
541.166794  	0.350992 
542.598452  	0.351966 
544.030111  	0.350400 
545.461769  	0.349693 
546.893427  	0.348916 
548.325085  	0.346084 
549.756743  	0.345912 
551.188402  	0.347062 
552.620060  	0.346315 
554.051718  	0.345249 
555.483376  	0.344225 
556.915034  	0.342752 
558.346692  	0.340093 
559.778351  	0.338553 
561.210009  	0.339507 
562.641667  	0.337119 
564.073325  	0.333031 
565.504983  	0.333156 
566.936642  	0.333567 
568.368300  	0.332445 
569.799958  	0.331014 
571.231616  	0.329035 
572.663274  	0.329787 
574.094933  	0.331209 
575.526591  	0.330772 
576.958249  	0.332314 
578.389907  	0.332664 
579.821565  	0.329019 
581.253223  	0.325987 
582.684882  	0.325011 
584.116540  	0.325929 
585.548198  	0.327009 
586.979856  	0.325472 
588.411514  	0.325176 
589.843173  	0.326120 
591.274831  	0.324666 
592.706489  	0.324558 
594.138147  	0.326256 
595.569805  	0.325891 
597.001464  	0.324954 
598.433122  	0.325620 
599.864780  	0.328229 
601.296438  	0.330302 
602.728096  	0.328825 
604.159754  	0.327058 
605.591413  	0.327314 
607.023071  	0.327558 
608.454729  	0.327372 
609.886387  	0.325379 
611.318045  	0.320949 
612.749704  	0.317508 
614.181362  	0.316190 
615.613020  	0.314626 
617.044678  	0.311934 
618.476336  	0.309660 
619.907994  	0.309030 
621.339653  	0.308644 
622.771311  	0.307204 
624.202969  	0.306234 
625.634627  	0.306662 
627.066285  	0.306880 
628.497944  	0.305743 
629.929602  	0.304285 
631.361260  	0.303945 
632.792918  	0.304523 
634.224576  	0.304567 
635.656235  	0.302268 
637.087893  	0.298418 
638.519551  	0.296856 
639.951209  	0.296929 
641.382867  	0.295258 
642.814525  	0.293430 
644.246184  	0.292766 
645.677842  	0.292187 
647.109500  	0.292137 
648.541158  	0.290966 
649.972816  	0.287871 
651.404475  	0.286046 
652.836133  	0.285017 
654.267791  	0.282512 
655.699449  	0.279525 
657.131107  	0.276993 
658.562766  	0.274909 
659.994424  	0.273050 
661.426082  	0.270847 
662.857740  	0.267690 
664.289398  	0.263890 
665.721056  	0.262703 
667.152715  	0.267694 
668.584373  	0.271319 
670.016031  	0.261064 
671.447689  	0.253823 
672.879347  	0.251171 
674.311006  	0.249625 
675.742664  	0.246203 
677.174322  	0.242994 
678.605980  	0.241613 
680.037638  	0.239283 
681.469296  	0.235371 
682.900955  	0.232570 
684.332613  	0.231182 
685.764271  	0.229334 
687.195929  	0.226151 
688.627587  	0.222557 
690.059246  	0.219376 
691.490904  	0.216181 
692.922562  	0.213235 
694.354220  	0.210650 
695.785878  	0.207835 
697.217537  	0.205364 
698.649195  	0.203101 
700.080853  	0.200435 
701.512511  	0.198138 
702.944169  	0.195731 
704.375827  	0.192687 
705.807486  	0.190296 
707.239144  	0.188327 
708.670802  	0.186017 
710.102460  	0.183761 
711.534118  	0.180827 
712.965777  	0.177292 
714.397435  	0.174874 
715.829093  	0.173202 
717.260751  	0.171206 
718.692409  	0.169575 
720.124067  	0.167924 
721.555726  	0.164948 
722.987384  	0.161935 
724.419042  	0.159811 
725.850700  	0.156869 
727.282358  	0.153066 
728.714017  	0.150137 
730.145675  	0.147488 
731.577333  	0.144253 
733.008991  	0.141416 
734.440649  	0.138981 
735.872308  	0.136182 
737.303966  	0.133506 
738.735624  	0.131743 
740.167282  	0.130926 
741.598940  	0.130182 
743.030598  	0.128751 
744.462257  	0.127446 
745.893915  	0.126719 
747.325573  	0.125714 
748.757231  	0.124845 
750.188889  	0.124548 
751.620548  	0.123855 
753.052206  	0.123208 
754.483864  	0.123530 
755.915522  	0.124784 
757.347180  	0.127691 
758.778839  	0.132081 
760.210497  	0.137076 
761.642155  	0.143378 
763.073813  	0.150710 
764.505471  	0.157736 
765.937129  	0.163664 
767.368788  	0.166511 
768.800446  	0.164607 
770.232104  	0.158967 
771.663762  	0.151436 
773.095420  	0.142872 
774.527079  	0.134250 
775.958737  	0.126562 
777.390395  	0.119775 
778.822053  	0.113330 
780.253711  	0.106862 
781.685369  	0.100010 
783.117028  	0.092811 
784.548686  	0.086352 
785.980344  	0.080863 
787.412002  	0.075411 
788.843660  	0.070909 
790.275319  	0.068384 
791.706977  	0.066746 
793.138635  	0.065715 
794.570293  	0.066047 
796.001951  	0.067762 
797.433610  	0.070464 
798.865268  	0.073730 
800.296926  	0.077656 
801.728584  	0.082655 
803.160242  	0.088441 
804.591900  	0.094299 
806.023559  	0.100299 
807.455217  	0.106831 
808.886875  	0.113267 
810.318533  	0.119030 
811.750191  	0.123655 
813.181850  	0.126229 
814.613508  	0.126985 
816.045166  	0.125959 
817.476824  	0.122283 
818.908482  	0.116560 
820.340141  	0.109974 
821.771799  	0.102960 
823.203457  	0.096469 
824.635115  	0.091385 
826.066773  	0.087160 
827.498431  	0.083174 
828.930090  	0.079587 
830.361748  	0.076655 
831.793406  	0.074124 
833.225064  	0.071364 
834.656722  	0.068625 
836.088381  	0.066703 
837.520039  	0.065695 
838.951697  	0.065561 
840.383355  	0.066067 
841.815013  	0.066808 
843.246671  	0.067984 
844.678330  	0.069586 
846.109988  	0.071073 
847.541646  	0.072142 
848.973304  	0.072537 
850.404962  	0.071900 
851.836621  	0.070473 
853.268279  	0.068818 
854.699937  	0.066875 
856.131595  	0.064629 
857.563253  	0.062632 
858.994912  	0.060941 
860.426570  	0.059076 
861.858228  	0.056761 
863.289886  	0.053772 
864.721544  	0.050252 
866.153202  	0.046506 
867.584861  	0.042166 
869.016519  	0.037174 
870.448177  	0.032303 
871.879835  	0.028075 
873.311493  	0.024798 
874.743152  	0.022378 
876.174810  	0.020386 
877.606468  	0.019157 
879.038126  	0.018649 
880.469784  	0.018179 
881.901443  	0.017998 
883.333101  	0.018351 
884.764759  	0.018775 
886.196417  	0.019131 
887.628075  	0.019545 
889.059733  	0.020004 
890.491392  	0.020616 
891.923050  	0.021480 
893.354708  	0.022213 
894.786366  	0.022726 
896.218024  	0.023610 
897.649683  	0.024785 
899.081341  	0.025904 
900.512999  	0.027209 
901.944657  	0.028585 
903.376315  	0.029890 
904.807973  	0.031505 
906.239632  	0.033755 
907.671290  	0.036633 
909.102948  	0.039840 
910.534606  	0.043470 
911.966264  	0.047420 
913.397923  	0.050593 
914.829581  	0.052242 
916.261239  	0.051829 
917.692897  	0.049478 
919.124555  	0.046687 
920.556214  	0.044008 
921.987872  	0.041516 
923.419530  	0.039836 
924.851188  	0.038673 
926.282846  	0.038296 
927.714504  	0.039343 
929.146163  	0.040575 
930.577821  	0.041510 
932.009479  	0.042906 
933.441137  	0.044493 
934.872795  	0.046072 
936.304454  	0.047878 
937.736112  	0.050165 
939.167770  	0.052817 
940.599428  	0.054944 
942.031086  	0.056739 
943.462744  	0.058874 
944.894403  	0.060816 
946.326061  	0.062297 
947.757719  	0.063561 
949.189377  	0.065000 
950.621035  	0.066713 
952.052694  	0.067990 
953.484352  	0.069191 
954.916010  	0.070888 
956.347668  	0.072335 
957.779326  	0.073622 
959.210985  	0.074825 
960.642643  	0.075135 
962.074301  	0.074878 
963.505959  	0.074496 
964.937617  	0.073846 
966.369275  	0.073146 
967.800934  	0.072563 
969.232592  	0.072299 
970.664250  	0.072352 
972.095908  	0.072489 
973.527566  	0.073088 
974.959225  	0.074181 
976.390883  	0.075304 
977.822541  	0.076425 
979.254199  	0.077405 
980.685857  	0.078061 
982.117516  	0.078487 
983.549174  	0.078856 
984.980832  	0.079056 
986.412490  	0.078913 
987.844148  	0.079070 
989.275806  	0.079736 
990.707465  	0.080352 
992.139123  	0.081375 
993.570781  	0.082833 
995.002439  	0.084306 
996.434097  	0.086651 
997.865756  	0.089737 
999.297414  	0.092745 
1000.729072  	0.095917 
1002.160730  	0.099107 
1003.592388  	0.102601 
1005.024046  	0.106968 
1006.455705  	0.111855 
1007.887363  	0.117557 
1009.319021  	0.124203 
1010.750679  	0.131452 
1012.182337  	0.140330 
1013.613996  	0.152446 
1015.045654  	0.167303 
1016.477312  	0.178658 
1017.908970  	0.178661 
1019.340628  	0.167214 
1020.772287  	0.150645 
1022.203945  	0.136344 
1023.635603  	0.128532 
1025.067261  	0.127420 
1026.498919  	0.131435 
1027.930577  	0.138085 
1029.362236  	0.145301 
1030.793894  	0.153083 
1032.225552  	0.160953 
1033.657210  	0.168787 
1035.088868  	0.177384 
1036.520527  	0.185494 
1037.952185  	0.193041 
1039.383843  	0.200904 
1040.815501  	0.208405 
1042.247159  	0.216200 
1043.678818  	0.224534 
1045.110476  	0.233050 
1046.542134  	0.241989 
1047.973792  	0.250580 
1049.405450  	0.259904 
1050.837108  	0.269915 
1052.268767  	0.278642 
1053.700425  	0.287348 
1055.132083  	0.294814 
1056.563741  	0.299566 
1057.995399  	0.303421 
1059.427058  	0.304638 
1060.858716  	0.303166 
1062.290374  	0.300149 
1063.722032  	0.294447 
1065.153690  	0.288097 
1066.585348  	0.281062 
1068.017007  	0.272429 
1069.448665  	0.264248 
1070.880323  	0.255495 
1072.311981  	0.245838 
1073.743639  	0.236504 
1075.175298  	0.226658 
1076.606956  	0.216680 
1078.038614  	0.206229 
1079.470272  	0.194713 
1080.901930  	0.183608 
1082.333589  	0.173086 
1083.765247  	0.163342 
1085.196905  	0.154954 
1086.628563  	0.147711 
1088.060221  	0.142761 
1089.491879  	0.140258 
1090.923538  	0.138990 
1092.355196  	0.139287 
1093.786854  	0.140295 
1095.218512  	0.141076 
1096.650170  	0.142522 
1098.081829  	0.143765 
1099.513487  	0.144857 
1100.945145  	0.146794 
1102.376803  	0.148167 
1103.808461  	0.148901 
1105.240120  	0.149231 
1106.671778  	0.148508 
1108.103436  	0.147536 
1109.535094  	0.145830 
1110.966752  	0.143067 
1112.398410  	0.139782 
1113.830069  	0.134734 
1115.261727  	0.128406 
1116.693385  	0.122199 
1118.125043  	0.115853 
1119.556701  	0.110015 
1120.988360  	0.104876 
1122.420018  	0.099366 
1123.851676  	0.093394 
1125.283334  	0.086693 
1126.714992  	0.079361 
1128.146650  	0.072517 
1129.578309  	0.066295 
1131.009967  	0.060864 
1132.441625  	0.056735 
1133.873283  	0.053331 
1135.304941  	0.050689 
1136.736600  	0.048936 
1138.168258  	0.047616 
1139.599916  	0.047205 
1141.031574  	0.047385 
1142.463232  	0.047536 
1143.894891  	0.048023 
1145.326549  	0.048526 
1146.758207  	0.049048 
1148.189865  	0.049701 
1149.621523  	0.050239 
1151.053181  	0.051369 
1152.484840  	0.052815 
1153.916498  	0.054333 
1155.348156  	0.056799 
1156.779814  	0.059297 
1158.211472  	0.061403 
1159.643131  	0.064087 
1161.074789  	0.067023 
1162.506447  	0.070150 
1163.938105  	0.073758 
1165.369763  	0.077698 
1166.801421  	0.081987 
1168.233080  	0.086601 
1169.664738  	0.092394 
1171.096396  	0.099507 
1172.528054  	0.107107 
1173.959712  	0.115982 
1175.391371  	0.126245 
1176.823029  	0.137385 
1178.254687  	0.149393 
1179.686345  	0.160593 
1181.118003  	0.169608 
1182.549662  	0.175927 
1183.981320  	0.180851 
1185.412978  	0.187132 
1186.844636  	0.194685 
1188.276294  	0.203658 
1189.707952  	0.214751 
1191.139611  	0.226441 
1192.571269  	0.239389 
1194.002927  	0.253888 
1195.434585  	0.268616 
1196.866243  	0.284534 
1198.297902  	0.300760 
1199.729560  	0.315938 
1201.161218  	0.328233 
1202.592876  	0.334578 
1204.024534  	0.336864 
1205.456193  	0.335538 
1206.887851  	0.331499 
1208.319509  	0.329780 
1209.751167  	0.330676 
1211.182825  	0.334277 
1212.614483  	0.340828 
1214.046142  	0.346610 
1215.477800  	0.351360 
1216.909458  	0.353657 
1218.341116  	0.351528 
1219.772774  	0.347517 
1221.204433  	0.340320 
1222.636091  	0.330780 
1224.067749  	0.321423 
1225.499407  	0.310199 
1226.931065  	0.298624 
1228.362723  	0.287526 
1229.794382  	0.275419 
1231.226040  	0.263737 
1232.657698  	0.251903 
1234.089356  	0.239922 
1235.521014  	0.228828 
1236.952673  	0.216956 
1238.384331  	0.204926 
1239.815989  	0.193553 
1241.247647  	0.181979 
1242.679305  	0.171045 
1244.110964  	0.160601 
1245.542622  	0.150467 
1246.974280  	0.141672 
1248.405938  	0.133681 
1249.837596  	0.126239 
1251.269254  	0.119385 
1252.700913  	0.112192 
1254.132571  	0.104840 
1255.564229  	0.097213 
1256.995887  	0.088651 
1258.427545  	0.080091 
1259.859204  	0.071961 
1261.290862  	0.064001 
1262.722520  	0.057108 
1264.154178  	0.051667 
1265.585836  	0.047532 
1267.017495  	0.045245 
1268.449153  	0.044428 
1269.880811  	0.044439 
1271.312469  	0.045189 
1272.744127  	0.046056 
1274.175785  	0.046906 
1275.607444  	0.047310 
1277.039102  	0.046710 
1278.470760  	0.046045 
1279.902418  	0.045457 
1281.334076  	0.044592 
1282.765735  	0.044295 
1284.197393  	0.044860 
1285.629051  	0.046332 
1287.060709  	0.048831 
1288.492367  	0.052403 
1289.924025  	0.057532 
1291.355684  	0.063717 
1292.787342  	0.070934 
1294.219000  	0.079907 
1295.650658  	0.090358 
1297.082316  	0.102487 
1298.513975  	0.115734 
1299.945633  	0.129473 
1301.377291  	0.143882 
1302.808949  	0.157638 
1304.240607  	0.170184 
1305.672266  	0.180108 
1307.103924  	0.186097 
1308.535582  	0.188732 
1309.967240  	0.186796 
1311.398898  	0.181787 
1312.830556  	0.175984 
1314.262215  	0.169825 
1315.693873  	0.164744 
1317.125531  	0.159185 
1318.557189  	0.149877 
1319.988847  	0.136064 
1321.420506  	0.119344 
1322.852164  	0.102879 
1324.283822  	0.088140 
1325.715480  	0.075694 
1327.147138  	0.065543 
1328.578796  	0.057608 
1330.010455  	0.052103 
1331.442113  	0.048235 
1332.873771  	0.045894 
1334.305429  	0.044661 
1335.737087  	0.043879 
1337.168746  	0.043918 
1338.600404  	0.044157 
1340.032062  	0.043956 
1341.463720  	0.043417 
1342.895378  	0.042488 
1344.327037  	0.041561 
1345.758695  	0.040706 
1347.190353  	0.039988 
1348.622011  	0.039768 
1350.053669  	0.039438 
1351.485327  	0.039141 
1352.916986  	0.039376 
1354.348644  	0.039516 
1355.780302  	0.039734 
1357.211960  	0.039959 
1358.643618  	0.039851 
1360.075277  	0.040094 
1361.506935  	0.040320 
1362.938593  	0.040090 
1364.370251  	0.039875 
1365.801909  	0.039422 
1367.233568  	0.039038 
1368.665226  	0.038756 
1370.096884  	0.038012 
1371.528542  	0.037479 
1372.960200  	0.037075 
1374.391858  	0.036132 
1375.823517  	0.035286 
1377.255175  	0.034637 
1378.686833  	0.034221 
1380.118491  	0.034142 
1381.550149  	0.033924 
1382.981808  	0.034374 
1384.413466  	0.035493 
1385.845124  	0.036678 
1387.276782  	0.038692 
1388.708440  	0.040774 
1390.140098  	0.043194 
1391.571757  	0.046492 
1393.003415  	0.049407 
1394.435073  	0.053133 
1395.866731  	0.058020 
1397.298389  	0.062358 
1398.730048  	0.067929 
1400.161706  	0.074297 
1401.593364  	0.080982 
1403.025022  	0.089744 
1404.456680  	0.101605 
1405.888339  	0.118894 
1407.319997  	0.140056 
1408.751655  	0.163285 
1410.183313  	0.188575 
1411.614971  	0.205173 
1413.046629  	0.205829 
1414.478288  	0.193735 
1415.909946  	0.167245 
1417.341604  	0.137504 
1418.773262  	0.106965 
1420.204920  	0.072604 
1421.636579  	0.055905 
1423.068237  	0.046986 
1424.499895  	0.039525 
1425.931553  	0.039136 
1427.363211  	0.041199 
1428.794870  	0.045117 
1430.226528  	0.051129 
1431.658186  	0.054733 
1433.089844  	0.057023 
1434.521502  	0.058021 
1435.953160  	0.056796 
1437.384819  	0.053843 
1438.816477  	0.051440 
1440.248135  	0.050362 
1441.679793  	0.050689 
1443.111451  	0.051825 
1444.543110  	0.054474 
1445.974768  	0.057418 
1447.406426  	0.059119 
1448.838084  	0.060830 
1450.269742  	0.061597 
1451.701400  	0.062191 
1453.133059  	0.063570 
1454.564717  	0.064309 
1455.996375  	0.065403 
1457.428033  	0.065636 
1458.859691  	0.064021 
1460.291350  	0.064604 
1461.723008  	0.065581 
1463.154666  	0.067259 
1464.586324  	0.070596 
1466.017982  	0.072955 
1467.449641  	0.075354 
1468.881299  	0.078155 
1470.312957  	0.080074 
1471.744615  	0.082835 
1473.176273  	0.083818 
1474.607931  	0.083509 
1476.039590  	0.084359 
1477.471248  	0.082573 
1478.902906  	0.081497 
1480.334564  	0.080955 
1481.766222  	0.079032 
1483.197881  	0.079438 
1484.629539  	0.080109 
1486.061197  	0.081099 
1487.492855  	0.084902 
1488.924513  	0.087414 
1490.356172  	0.091739 
1491.787830  	0.098600 
1493.219488  	0.103584 
1494.651146  	0.111561 
1496.082804  	0.121262 
1497.514462  	0.130509 
1498.946121  	0.143696 
1500.377779  	0.154781 
1501.809437  	0.166767 
1503.241095  	0.181898 
1504.672753  	0.193434 
1506.104412  	0.209596 
1507.536070  	0.239997 
1508.967728  	0.256970 
1510.399386  	0.275205 
1511.831044  	0.289241 
1513.262702  	0.297463 
1514.694361  	0.304932 
1516.126019  	0.303907 
1517.557677  	0.303357 
1518.989335  	0.304514 
1520.420993  	0.299016 
1521.852652  	0.300725 
1523.284310  	0.297886 
1524.715968  	0.291453 
1526.147626  	0.289378 
1527.579284  	0.280600 
1529.010943  	0.274039 
1530.442601  	0.268684 
1531.874259  	0.259161 
1533.305917  	0.253163 
1534.737575  	0.241738 
1536.169233  	0.230399 
1537.600892  	0.223641 
1539.032550  	0.208993 
1540.464208  	0.192687 
1541.895866  	0.178676 
1543.327524  	0.160566 
1544.759183  	0.147093 
1546.190841  	0.128257 
1547.622499  	0.112258 
1549.054157  	0.100031 
1550.485815  	0.081004 
1551.917473  	0.066685 
1553.349132  	0.056209 
1554.780790  	0.041529 
1556.212448  	0.032342 
1557.644106  	0.026657 
1559.075764  	0.016571 
1560.507423  	0.008402 
1561.939081  	0.004471 
1563.370739  	0.001645 
1564.802397  	-0.000873 
1566.234055  	-0.003303 
1567.665714  	-0.004105 
1569.097372  	-0.004433 
1570.529030  	-0.005175 
1571.960688  	-0.005156 
1573.392346  	-0.004429 
1574.824004  	-0.003217 
1576.255663  	-0.000941 
1577.687321  	0.002208 
1579.118979  	0.005110 
1580.550637  	0.009545 
1581.982295  	0.016027 
1583.413954  	0.023904 
1584.845612  	0.034780 
1586.277270  	0.047428 
1587.708928  	0.061907 
1589.140586  	0.079503 
1590.572245  	0.095588 
1592.003903  	0.111353 
1593.435561  	0.124819 
1594.867219  	0.132243 
1596.298877  	0.137896 
1597.730535  	0.137098 
1599.162194  	0.132065 
1600.593852  	0.126299 
1602.025510  	0.116286 
1603.457168  	0.106863 
1604.888826  	0.098048 
1606.320485  	0.089624 
1607.752143  	0.085000 
1609.183801  	0.080969 
1610.615459  	0.078356 
1612.047117  	0.076872 
1613.478775  	0.072509 
1614.910434  	0.068605 
1616.342092  	0.060870 
1617.773750  	0.046089 
1619.205408  	0.036844 
1620.637066  	0.027702 
1622.068725  	0.019452 
1623.500383  	0.014037 
1624.932041  	0.007915 
1626.363699  	0.005485 
1627.795357  	0.004742 
1629.227016  	0.002429 
1630.658674  	0.002418 
1632.090332  	0.002341 
1633.521990  	0.001806 
1634.953648  	0.003657 
1636.385306  	0.003237 
1637.816965  	0.002852 
1639.248623  	0.004077 
1640.680281  	0.003680 
1642.111939  	0.004790 
1643.543597  	0.006311 
1644.975256  	0.006940 
1646.406914  	0.009923 
1647.838572  	0.010731 
1649.270230  	0.011174 
1650.701888  	0.013743 
1652.133547  	0.014495 
1653.565205  	0.017836 
1654.996863  	0.020663 
1656.428521  	0.021009 
1657.860179  	0.024516 
1659.291837  	0.027270 
1660.723496  	0.029603 
1662.155154  	0.034794 
1663.586812  	0.038340 
1665.018470  	0.042992 
1666.450128  	0.048759 
1667.881787  	0.052738 
1669.313445  	0.060424 
1670.745103  	0.068260 
1672.176761  	0.073947 
1673.608419  	0.082918 
1675.040077  	0.090952 
1676.471736  	0.100813 
1677.903394  	0.111104 
1679.335052  	0.118509 
1680.766710  	0.129958 
1682.198368  	0.140104 
1683.630027  	0.145248 
1685.061685  	0.161901 
1686.493343  	0.171007 
1687.925001  	0.177128 
1689.356659  	0.189012 
1690.788318  	0.197882 
1692.219976  	0.206679 
1693.651634  	0.216291 
1695.083292  	0.220714 
1696.514950  	0.230422 
1697.946608  	0.236645 
1699.378267  	0.233954 
1700.809925  	0.235830 
1702.241583  	0.234217 
1703.673241  	0.228158 
1705.104899  	0.223828 
1706.536558  	0.216379 
1707.968216  	0.208400 
1709.399874  	0.202167 
1710.831532  	0.193507 
1712.263190  	0.186039 
1713.694849  	0.180069 
1715.126507  	0.171280 
1716.558165  	0.164931 
1717.989823  	0.158978 
1719.421481  	0.150310 
1720.853139  	0.146621 
1722.284798  	0.143191 
1723.716456  	0.139703 
1725.148114  	0.138438 
1726.579772  	0.135718 
1728.011430  	0.132673 
1729.443089  	0.129081 
1730.874747  	0.121318 
1732.306405  	0.114273 
1733.738063  	0.105605 
1735.169721  	0.087314 
1736.601379  	0.076683 
1738.033038  	0.066371 
1739.464696  	0.051712 
1740.896354  	0.039329 
1742.328012  	0.027762 
1743.759670  	0.016841 
1745.191329  	0.008634 
1746.622987  	0.000127 
1748.054645  	-0.005537 
1749.486303  	-0.010481 
1750.917961  	-0.016327 
1752.349620  	-0.018421 
1753.781278  	-0.021652 
1755.212936  	-0.023820 
1756.644594  	-0.023800 
1758.076252  	-0.026291 
1759.507910  	-0.026663 
1760.939569  	-0.026287 
1762.371227  	-0.028179 
1763.802885  	-0.027766 
1765.234543  	-0.028296 
1766.666201  	-0.028854 
1768.097860  	-0.027578 
1769.529518  	-0.029132 
1770.961176  	-0.029219 
1772.392834  	-0.027843 
1773.824492  	-0.029815 
1775.256150  	-0.029251 
1776.687809  	-0.029280 
1778.119467  	-0.030212 
1779.551125  	-0.028956 
1780.982783  	-0.029378 
1782.414441  	-0.029705 
1783.846100  	-0.028823 
1785.277758  	-0.029705 
1786.709416  	-0.029371 
1788.141074  	-0.029312 
1789.572732  	-0.030001 
1791.004391  	-0.028511 
1792.436049  	-0.028822 
1793.867707  	-0.029776 
1795.299365  	-0.029163 
1796.731023  	-0.030227 
1798.162681  	-0.030025 
1799.594340  	-0.029507 
1801.025998  	-0.030592 
1802.457656  	-0.030009 
1803.889314  	-0.030509 
1805.320972  	-0.031255 
1806.752631  	-0.030481 
1808.184289  	-0.031277 
1809.615947  	-0.031293 
1811.047605  	-0.030596 
1812.479263  	-0.031588 
1813.910922  	-0.031141 
1815.342580  	-0.031263 
1816.774238  	-0.032216 
1818.205896  	-0.031640 
1819.637554  	-0.032394 
1821.069212  	-0.032696 
1822.500871  	-0.031892 
1823.932529  	-0.032355 
1825.364187  	-0.031915 
1826.795845  	-0.032525 
1828.227503  	-0.033508 
1829.659162  	-0.032035 
1831.090820  	-0.032542 
1832.522478  	-0.033334 
1833.954136  	-0.033079 
1835.385794  	-0.034137 
1836.817452  	-0.033440 
1838.249111  	-0.033037 
1839.680769  	-0.034370 
1841.112427  	-0.033591 
1842.544085  	-0.033512 
1843.975743  	-0.034251 
1845.407402  	-0.033739 
1846.839060  	-0.034616 
1848.270718  	-0.034089 
1849.702376  	-0.033551 
1851.134034  	-0.034365 
1852.565693  	-0.033466 
1853.997351  	-0.033929 
1855.429009  	-0.034697 
1856.860667  	-0.033283 
1858.292325  	-0.033598 
1859.723983  	-0.033649 
1861.155642  	-0.033365 
1862.587300  	-0.034663 
1864.018958  	-0.033942 
1865.450616  	-0.033566 
1866.882274  	-0.033664 
1868.313933  	-0.031906 
1869.745591  	-0.033366 
1871.177249  	-0.033934 
1872.608907  	-0.032503 
1874.040565  	-0.033495 
1875.472224  	-0.032990 
1876.903882  	-0.032020 
1878.335540  	-0.033004 
1879.767198  	-0.032627 
1881.198856  	-0.032987 
1882.630514  	-0.033144 
1884.062173  	-0.031844 
1885.493831  	-0.032228 
1886.925489  	-0.031549 
1888.357147  	-0.030780 
1889.788805  	-0.031785 
1891.220464  	-0.030925 
1892.652122  	-0.030926 
1894.083780  	-0.031037 
1895.515438  	-0.029715 
1896.947096  	-0.030748 
1898.378754  	-0.030802 
1899.810413  	-0.029869 
1901.242071  	-0.030345 
1902.673729  	-0.029116 
1904.105387  	-0.029120 
1905.537045  	-0.030189 
1906.968704  	-0.029401 
1908.400362  	-0.030119 
1909.832020  	-0.029863 
1911.263678  	-0.029022 
1912.695336  	-0.030487 
1914.126995  	-0.029835 
1915.558653  	-0.030036 
1916.990311  	-0.031822 
1918.421969  	-0.030787 
1919.853627  	-0.031803 
1921.285285  	-0.032544 
1922.716944  	-0.030993 
1924.148602  	-0.031841 
1925.580260  	-0.031367 
1927.011918  	-0.030981 
1928.443576  	-0.032659 
1929.875235  	-0.031977 
1931.306893  	-0.032629 
1932.738551  	-0.033591 
1934.170209  	-0.032762 
1935.601867  	-0.034549 
1937.033525  	-0.033905 
1938.465184  	-0.031716 
1939.896842  	-0.032146 
1941.328500  	-0.030445 
1942.760158  	-0.030774 
1944.191816  	-0.033026 
1945.623475  	-0.032284 
1947.055133  	-0.033080 
1948.486791  	-0.031447 
1949.918449  	-0.029400 
1951.350107  	-0.031853 
1952.781766  	-0.031381 
1954.213424  	-0.031275 
1955.645082  	-0.032760 
1957.076740  	-0.030783 
1958.508398  	-0.031933 
1959.940056  	-0.032033 
1961.371715  	-0.029832 
1962.803373  	-0.032092 
1964.235031  	-0.030547 
1965.666689  	-0.029277 
1967.098347  	-0.031979 
1968.530006  	-0.030154 
1969.961664  	-0.030454 
1971.393322  	-0.030597 
1972.824980  	-0.029084 
1974.256638  	-0.032350 
1975.688297  	-0.030262 
1977.119955  	-0.028274 
1978.551613  	-0.032123 
1979.983271  	-0.030752 
1981.414929  	-0.031535 
1982.846587  	-0.032570 
1984.278246  	-0.030019 
1985.709904  	-0.032011 
1987.141562  	-0.031842 
1988.573220  	-0.030806 
1990.004878  	-0.033822 
1991.436537  	-0.032012 
1992.868195  	-0.030865 
1994.299853  	-0.032191 
1995.731511  	-0.031035 
1997.163169  	-0.031974 
1998.594827  	-0.030069 
2000.026486  	-0.028522 
2001.458144  	-0.031987 
2002.889802  	-0.029766 
2004.321460  	-0.028246 
2005.753118  	-0.030544 
2007.184777  	-0.028084 
2008.616435  	-0.028673 
2010.048093  	-0.028953 
2011.479751  	-0.027471 
2012.911409  	-0.030987 
2014.343068  	-0.029502 
2015.774726  	-0.027164 
2017.206384  	-0.028637 
2018.638042  	-0.026488 
2020.069700  	-0.027983 
2021.501358  	-0.028051 
2022.933017  	-0.024817 
2024.364675  	-0.028923 
2025.796333  	-0.029380 
2027.227991  	-0.027684 
2028.659649  	-0.030377 
2030.091308  	-0.027907 
2031.522966  	-0.028096 
2032.954624  	-0.028992 
2034.386282  	-0.024844 
2035.817940  	-0.026943 
2037.249599  	-0.027035 
2038.681257  	-0.024828 
2040.112915  	-0.028542 
2041.544573  	-0.028554 
2042.976231  	-0.028876 
2044.407889  	-0.031262 
2045.839548  	-0.028800 
2047.271206  	-0.029525 
2048.702864  	-0.030993 
2050.134522  	-0.029729 
2051.566180  	-0.030700 
2052.997839  	-0.029693 
2054.429497  	-0.029088 
2055.861155  	-0.030070 
2057.292813  	-0.028778 
2058.724471  	-0.029974 
2060.156129  	-0.030333 
2061.587788  	-0.027900 
2063.019446  	-0.029682 
2064.451104  	-0.031509 
2065.882762  	-0.031565 
2067.314420  	-0.032096 
2068.746079  	-0.030641 
2070.177737  	-0.030680 
2071.609395  	-0.030927 
2073.041053  	-0.029309 
2074.472711  	-0.029907 
2075.904370  	-0.029793 
2077.336028  	-0.029773 
2078.767686  	-0.031917 
2080.199344  	-0.031323 
2081.631002  	-0.030828 
2083.062660  	-0.031525 
2084.494319  	-0.030519 
2085.925977  	-0.030900 
2087.357635  	-0.031035 
2088.789293  	-0.030104 
2090.220951  	-0.030530 
2091.652610  	-0.029985 
2093.084268  	-0.029875 
2094.515926  	-0.030367 
2095.947584  	-0.030050 
2097.379242  	-0.031833 
2098.810901  	-0.031708 
2100.242559  	-0.029185 
2101.674217  	-0.029534 
2103.105875  	-0.029739 
2104.537533  	-0.030233 
2105.969191  	-0.031856 
2107.400850  	-0.030699 
2108.832508  	-0.029876 
2110.264166  	-0.030070 
2111.695824  	-0.029697 
2113.127482  	-0.030263 
2114.559141  	-0.029620 
2115.990799  	-0.029624 
2117.422457  	-0.031005 
2118.854115  	-0.029906 
2120.285773  	-0.029695 
2121.717431  	-0.030219 
2123.149090  	-0.029210 
2124.580748  	-0.029998 
2126.012406  	-0.029431 
2127.444064  	-0.027903 
2128.875722  	-0.029393 
2130.307381  	-0.029245 
2131.739039  	-0.028712 
2133.170697  	-0.029170 
2134.602355  	-0.027448 
2136.034013  	-0.028333 
2137.465672  	-0.029006 
2138.897330  	-0.026967 
2140.328988  	-0.028619 
2141.760646  	-0.029177 
2143.192304  	-0.027122 
2144.623962  	-0.026593 
2146.055621  	-0.026161 
2147.487279  	-0.028535 
2148.918937  	-0.029387 
2150.350595  	-0.026055 
2151.782253  	-0.025751 
2153.213912  	-0.024501 
2154.645570  	-0.023815 
2156.077228  	-0.027516 
2157.508886  	-0.027235 
2158.940544  	-0.026942 
2160.372202  	-0.026140 
2161.803861  	-0.022726 
2163.235519  	-0.026402 
2164.667177  	-0.028917 
2166.098835  	-0.027122 
2167.530493  	-0.027813 
2168.962152  	-0.027331 
2170.393810  	-0.027788 
2171.825468  	-0.027942 
2173.257126  	-0.025829 
2174.688784  	-0.027758 
2176.120443  	-0.027382 
2177.552101  	-0.024546 
2178.983759  	-0.027265 
2180.415417  	-0.028178 
2181.847075  	-0.027260 
2183.278733  	-0.027549 
2184.710392  	-0.025167 
2186.142050  	-0.025470 
2187.573708  	-0.027221 
2189.005366  	-0.026458 
2190.437024  	-0.026786 
2191.868683  	-0.026527 
2193.300341  	-0.026714 
2194.731999  	-0.027099 
2196.163657  	-0.024697 
2197.595315  	-0.025564 
2199.026974  	-0.028176 
2200.458632  	-0.027514 
2201.890290  	-0.027592 
2203.321948  	-0.028078 
2204.753606  	-0.028556 
2206.185264  	-0.028686 
2207.616923  	-0.026654 
2209.048581  	-0.027380 
2210.480239  	-0.029063 
2211.911897  	-0.028113 
2213.343555  	-0.028495 
2214.775214  	-0.027928 
2216.206872  	-0.026499 
2217.638530  	-0.027409 
2219.070188  	-0.027500 
2220.501846  	-0.027475 
2221.933504  	-0.027734 
2223.365163  	-0.027659 
2224.796821  	-0.029183 
2226.228479  	-0.028661 
2227.660137  	-0.027840 
2229.091795  	-0.030060 
2230.523454  	-0.029659 
2231.955112  	-0.028540 
2233.386770  	-0.029527 
2234.818428  	-0.028860 
2236.250086  	-0.028411 
2237.681745  	-0.028340 
2239.113403  	-0.027723 
2240.545061  	-0.028409 
2241.976719  	-0.028209 
2243.408377  	-0.027698 
2244.840035  	-0.028122 
2246.271694  	-0.028067 
2247.703352  	-0.028741 
2249.135010  	-0.028225 
2250.566668  	-0.026877 
2251.998326  	-0.028062 
2253.429985  	-0.028439 
2254.861643  	-0.027899 
2256.293301  	-0.027928 
2257.724959  	-0.026447 
2259.156617  	-0.026763 
2260.588276  	-0.028253 
2262.019934  	-0.027225 
2263.451592  	-0.026911 
2264.883250  	-0.027315 
2266.314908  	-0.027069 
2267.746566  	-0.027443 
2269.178225  	-0.027067 
2270.609883  	-0.026647 
2272.041541  	-0.026617 
2273.473199  	-0.026354 
2274.904857  	-0.027609 
2276.336516  	-0.028347 
2277.768174  	-0.027624 
2279.199832  	-0.028019 
2280.631490  	-0.028270 
2282.063148  	-0.027964 
2283.494806  	-0.027924 
2284.926465  	-0.027688 
2286.358123  	-0.027746 
2287.789781  	-0.026997 
2289.221439  	-0.026126 
2290.653097  	-0.026847 
2292.084756  	-0.026728 
2293.516414  	-0.025974 
2294.948072  	-0.026163 
2296.379730  	-0.025670 
2297.811388  	-0.025161 
2299.243047  	-0.025060 
2300.674705  	-0.024318 
2302.106363  	-0.023843 
2303.538021  	-0.023312 
2304.969679  	-0.022564 
2306.401337  	-0.022098 
2307.832996  	-0.021111 
2309.264654  	-0.020421 
2310.696312  	-0.019856 
2312.127970  	-0.018543 
2313.559628  	-0.018315 
2314.991287  	-0.018599 
2316.422945  	-0.017805 
2317.854603  	-0.016531 
2319.286261  	-0.014593 
2320.717919  	-0.012924 
2322.149577  	-0.012378 
2323.581236  	-0.012128 
2325.012894  	-0.012211 
2326.444552  	-0.011564 
2327.876210  	-0.009706 
2329.307868  	-0.008193 
2330.739527  	-0.007402 
2332.171185  	-0.007623 
2333.602843  	-0.008383 
2335.034501  	-0.007919 
2336.466159  	-0.006921 
2337.897818  	-0.006378 
2339.329476  	-0.006104 
2340.761134  	-0.005835 
2342.192792  	-0.005268 
2343.624450  	-0.005388 
2345.056108  	-0.006213 
2346.487767  	-0.008489 
2347.919425  	-0.012715 
2349.351083  	-0.014152 
2350.782741  	-0.010982 
2352.214399  	-0.007307 
2353.646058  	-0.005152 
2355.077716  	-0.002514 
2356.509374  	-0.000408 
2357.941032  	0.001201 
2359.372690  	0.002461 
2360.804349  	0.002346 
2362.236007  	0.002116 
2363.667665  	0.001130 
2365.099323  	-0.000866 
2366.530981  	-0.002380 
2367.962639  	-0.003830 
2369.394298  	-0.005336 
2370.825956  	-0.007385 
2372.257614  	-0.009866 
2373.689272  	-0.011754 
2375.120930  	-0.013887 
2376.552589  	-0.015932 
2377.984247  	-0.017595 
2379.415905  	-0.019928 
2380.847563  	-0.021966 
2382.279221  	-0.023553 
2383.710879  	-0.025391 
2385.142538  	-0.026569 
2386.574196  	-0.027238 
2388.005854  	-0.027639 
2389.437512  	-0.027480 
2390.869170  	-0.027557 
2392.300829  	-0.027684 
2393.732487  	-0.027646 
2395.164145  	-0.027853 
2396.595803  	-0.027775 
2398.027461  	-0.027675 
2399.459120  	-0.027825 
2400.890778  	-0.027965 
2402.322436  	-0.028258 
2403.754094  	-0.027966 
2405.185752  	-0.027538 
2406.617410  	-0.027910 
2408.049069  	-0.027872 
2409.480727  	-0.027575 
2410.912385  	-0.027736 
2412.344043  	-0.027818 
2413.775701  	-0.028042 
2415.207360  	-0.027951 
2416.639018  	-0.027637 
2418.070676  	-0.028060 
2419.502334  	-0.028187 
2420.933992  	-0.027862 
2422.365651  	-0.027654 
2423.797309  	-0.027127 
2425.228967  	-0.027141 
2426.660625  	-0.027635 
2428.092283  	-0.027717 
2429.523941  	-0.027751 
2430.955600  	-0.027408 
2432.387258  	-0.027171 
2433.818916  	-0.027600 
2435.250574  	-0.027551 
2436.682232  	-0.027294 
2438.113891  	-0.027199 
2439.545549  	-0.027006 
2440.977207  	-0.027233 
2442.408865  	-0.027271 
2443.840523  	-0.027114 
2445.272181  	-0.027237 
2446.703840  	-0.026851 
2448.135498  	-0.026712 
2449.567156  	-0.027139 
2450.998814  	-0.027206 
2452.430472  	-0.027467 
2453.862131  	-0.027524 
2455.293789  	-0.027006 
2456.725447  	-0.026928 
2458.157105  	-0.026946 
2459.588763  	-0.026862 
2461.020422  	-0.026825 
2462.452080  	-0.026641 
2463.883738  	-0.026874 
2465.315396  	-0.027005 
2466.747054  	-0.026785 
2468.178712  	-0.027048 
2469.610371  	-0.027038 
2471.042029  	-0.026612 
2472.473687  	-0.026596 
2473.905345  	-0.026761 
2475.337003  	-0.026816 
2476.768662  	-0.026406 
2478.200320  	-0.026057 
2479.631978  	-0.026310 
2481.063636  	-0.026291 
2482.495294  	-0.026426 
2483.926953  	-0.026698 
2485.358611  	-0.026245 
2486.790269  	-0.026248 
2488.221927  	-0.026480 
2489.653585  	-0.026301 
2491.085243  	-0.026761 
2492.516902  	-0.026861 
2493.948560  	-0.026271 
2495.380218  	-0.026035 
2496.811876  	-0.025832 
2498.243534  	-0.026320 
2499.675193  	-0.027045 
2501.106851  	-0.026746 
2502.538509  	-0.026707 
2503.970167  	-0.026787 
2505.401825  	-0.026400 
2506.833483  	-0.026580 
2508.265142  	-0.026807 
2509.696800  	-0.026877 
2511.128458  	-0.027044 
2512.560116  	-0.026827 
2513.991774  	-0.026684 
2515.423433  	-0.026410 
2516.855091  	-0.026066 
2518.286749  	-0.026247 
2519.718407  	-0.026125 
2521.150065  	-0.026300 
2522.581724  	-0.027043 
2524.013382  	-0.026897 
2525.445040  	-0.026649 
2526.876698  	-0.026924 
2528.308356  	-0.027136 
2529.740014  	-0.027123 
2531.171673  	-0.026424 
2532.603331  	-0.026197 
2534.034989  	-0.026614 
2535.466647  	-0.026274 
2536.898305  	-0.026598 
2538.329964  	-0.027302 
2539.761622  	-0.026726 
2541.193280  	-0.026448 
2542.624938  	-0.026423 
2544.056596  	-0.026059 
2545.488254  	-0.026363 
2546.919913  	-0.026499 
2548.351571  	-0.026350 
2549.783229  	-0.026308 
2551.214887  	-0.025914 
2552.646545  	-0.026062 
2554.078204  	-0.026458 
2555.509862  	-0.026371 
2556.941520  	-0.026219 
2558.373178  	-0.025738 
2559.804836  	-0.025762 
2561.236495  	-0.026209 
2562.668153  	-0.025886 
2564.099811  	-0.025982 
2565.531469  	-0.025937 
2566.963127  	-0.024983 
2568.394785  	-0.025138 
2569.826444  	-0.025684 
2571.258102  	-0.025656 
2572.689760  	-0.025980 
2574.121418  	-0.025868 
2575.553076  	-0.025621 
2576.984735  	-0.025937 
2578.416393  	-0.026092 
2579.848051  	-0.026369 
2581.279709  	-0.026307 
2582.711367  	-0.025770 
2584.143026  	-0.025929 
2585.574684  	-0.026033 
2587.006342  	-0.025605 
2588.438000  	-0.025320 
2589.869658  	-0.025190 
2591.301316  	-0.025378 
2592.732975  	-0.025384 
2594.164633  	-0.025088 
2595.596291  	-0.025240 
2597.027949  	-0.025314 
2598.459607  	-0.025378 
2599.891266  	-0.025926 
2601.322924  	-0.026221 
2602.754582  	-0.026174 
2604.186240  	-0.025803 
2605.617898  	-0.025296 
2607.049556  	-0.025436 
2608.481215  	-0.025642 
2609.912873  	-0.025471 
2611.344531  	-0.025386 
2612.776189  	-0.025345 
2614.207847  	-0.025420 
2615.639506  	-0.025489 
2617.071164  	-0.025541 
2618.502822  	-0.025726 
2619.934480  	-0.025445 
2621.366138  	-0.025078 
2622.797797  	-0.025247 
2624.229455  	-0.025363 
2625.661113  	-0.025371 
2627.092771  	-0.025330 
2628.524429  	-0.025258 
2629.956087  	-0.025392 
2631.387746  	-0.025160 
2632.819404  	-0.024810 
2634.251062  	-0.024885 
2635.682720  	-0.024861 
2637.114378  	-0.024900 
2638.546037  	-0.024932 
2639.977695  	-0.024696 
2641.409353  	-0.024864 
2642.841011  	-0.024985 
2644.272669  	-0.024678 
2645.704328  	-0.024616 
2647.135986  	-0.024571 
2648.567644  	-0.024524 
2649.999302  	-0.024694 
2651.430960  	-0.024772 
2652.862618  	-0.024837 
2654.294277  	-0.024675 
2655.725935  	-0.024422 
2657.157593  	-0.024555 
2658.589251  	-0.024472 
2660.020909  	-0.024245 
2661.452568  	-0.024211 
2662.884226  	-0.023852 
2664.315884  	-0.023620 
2665.747542  	-0.023760 
2667.179200  	-0.023690 
2668.610858  	-0.023615 
2670.042517  	-0.023621 
2671.474175  	-0.023647 
2672.905833  	-0.023635 
2674.337491  	-0.023281 
2675.769149  	-0.023093 
2677.200808  	-0.023172 
2678.632466  	-0.023111 
2680.064124  	-0.023218 
2681.495782  	-0.023145 
2682.927440  	-0.022782 
2684.359099  	-0.022800 
2685.790757  	-0.022817 
2687.222415  	-0.022619 
2688.654073  	-0.022455 
2690.085731  	-0.022119 
2691.517389  	-0.021876 
2692.949048  	-0.021801 
2694.380706  	-0.021751 
2695.812364  	-0.021815 
2697.244022  	-0.021623 
2698.675680  	-0.021257 
2700.107339  	-0.021021 
2701.538997  	-0.020829 
2702.970655  	-0.020907 
2704.402313  	-0.020899 
2705.833971  	-0.020564 
2707.265630  	-0.020442 
2708.697288  	-0.020343 
2710.128946  	-0.020181 
2711.560604  	-0.020016 
2712.992262  	-0.019590 
2714.423920  	-0.019480 
2715.855579  	-0.019607 
2717.287237  	-0.019411 
2718.718895  	-0.019347 
2720.150553  	-0.019227 
2721.582211  	-0.018936 
2723.013870  	-0.018858 
2724.445528  	-0.018491 
2725.877186  	-0.018004 
2727.308844  	-0.017847 
2728.740502  	-0.017748 
2730.172160  	-0.017798 
2731.603819  	-0.017679 
2733.035477  	-0.017307 
2734.467135  	-0.017213 
2735.898793  	-0.017060 
2737.330451  	-0.016939 
2738.762110  	-0.016982 
2740.193768  	-0.016574 
2741.625426  	-0.016240 
2743.057084  	-0.016355 
2744.488742  	-0.016424 
2745.920401  	-0.016443 
2747.352059  	-0.016282 
2748.783717  	-0.016196 
2750.215375  	-0.016379 
2751.647033  	-0.016201 
2753.078691  	-0.016005 
2754.510350  	-0.016114 
2755.942008  	-0.016056 
2757.373666  	-0.015910 
2758.805324  	-0.015646 
2760.236982  	-0.015505 
2761.668641  	-0.015679 
2763.100299  	-0.015508 
2764.531957  	-0.015401 
2765.963615  	-0.015614 
2767.395273  	-0.015390 
2768.826931  	-0.015103 
2770.258590  	-0.014897 
2771.690248  	-0.014545 
2773.121906  	-0.014510 
2774.553564  	-0.014361 
2775.985222  	-0.013929 
2777.416881  	-0.013734 
2778.848539  	-0.013520 
2780.280197  	-0.013333 
2781.711855  	-0.013110 
2783.143513  	-0.012526 
2784.575172  	-0.012116 
2786.006830  	-0.011822 
2787.438488  	-0.011240 
2788.870146  	-0.010720 
2790.301804  	-0.010267 
2791.733462  	-0.009652 
2793.165121  	-0.008900 
2794.596779  	-0.008341 
2796.028437  	-0.008123 
2797.460095  	-0.007782 
2798.891753  	-0.007659 
2800.323412  	-0.008069 
2801.755070  	-0.008235 
2803.186728  	-0.008361 
2804.618386  	-0.008719 
2806.050044  	-0.008807 
2807.481703  	-0.008998 
2808.913361  	-0.009329 
2810.345019  	-0.009515 
2811.776677  	-0.009783 
2813.208335  	-0.009700 
2814.639993  	-0.009355 
2816.071652  	-0.009231 
2817.503310  	-0.008807 
2818.934968  	-0.008020 
2820.366626  	-0.007115 
2821.798284  	-0.006134 
2823.229943  	-0.005342 
2824.661601  	-0.004391 
2826.093259  	-0.003196 
2827.524917  	-0.002031 
2828.956575  	-0.000446 
2830.388233  	0.001379 
2831.819892  	0.002991 
2833.251550  	0.004719 
2834.683208  	0.006686 
2836.114866  	0.008898 
2837.546524  	0.011199 
2838.978183  	0.013322 
2840.409841  	0.015520 
2841.841499  	0.017765 
2843.273157  	0.019976 
2844.704815  	0.022379 
2846.136474  	0.024706 
2847.568132  	0.026866 
2848.999790  	0.028868 
2850.431448  	0.030345 
2851.863106  	0.031573 
2853.294764  	0.032932 
2854.726423  	0.034029 
2856.158081  	0.034586 
2857.589739  	0.034784 
2859.021397  	0.034836 
2860.453055  	0.034725 
2861.884714  	0.034561 
2863.316372  	0.034489 
2864.748030  	0.033932 
2866.179688  	0.032787 
2867.611346  	0.031722 
2869.043005  	0.030425 
2870.474663  	0.028674 
2871.906321  	0.026977 
2873.337979  	0.025114 
2874.769637  	0.023117 
2876.201295  	0.021463 
2877.632954  	0.019902 
2879.064612  	0.018319 
2880.496270  	0.016878 
2881.927928  	0.015586 
2883.359586  	0.014653 
2884.791245  	0.014259 
2886.222903  	0.014282 
2887.654561  	0.014405 
2889.086219  	0.014688 
2890.517877  	0.015327 
2891.949535  	0.015817 
2893.381194  	0.016164 
2894.812852  	0.016896 
2896.244510  	0.017624 
2897.676168  	0.018179 
2899.107826  	0.018867 
2900.539485  	0.019495 
2901.971143  	0.020124 
2903.402801  	0.020885 
2904.834459  	0.021582 
2906.266117  	0.022332 
2907.697776  	0.023176 
2909.129434  	0.023911 
2910.561092  	0.024536 
2911.992750  	0.025205 
2913.424408  	0.025940 
2914.856066  	0.026447 
2916.287725  	0.026601 
2917.719383  	0.026659 
2919.151041  	0.026799 
2920.582699  	0.027035 
2922.014357  	0.027204 
2923.446016  	0.027422 
2924.877674  	0.028016 
2926.309332  	0.028631 
2927.740990  	0.029111 
2929.172648  	0.029823 
2930.604306  	0.030651 
2932.035965  	0.031560 
2933.467623  	0.032479 
2934.899281  	0.033096 
2936.330939  	0.033768 
2937.762597  	0.034585 
2939.194256  	0.035083 
2940.625914  	0.035223 
2942.057572  	0.035048 
2943.489230  	0.034777 
2944.920888  	0.034485 
2946.352547  	0.033715 
2947.784205  	0.032738 
2949.215863  	0.031941 
2950.647521  	0.030913 
2952.079179  	0.029565 
2953.510837  	0.027877 
2954.942496  	0.025731 
2956.374154  	0.023518 
2957.805812  	0.021395 
2959.237470  	0.019133 
2960.669128  	0.016589 
2962.100787  	0.013921 
2963.532445  	0.011434 
2964.964103  	0.008860 
2966.395761  	0.006124 
2967.827419  	0.003594 
2969.259078  	0.001238 
2970.690736  	-0.000736 
2972.122394  	-0.002467 
2973.554052  	-0.004478 
2974.985710  	-0.006185 
2976.417368  	-0.007459 
2977.849027  	-0.008854 
2979.280685  	-0.010116 
2980.712343  	-0.011301 
2982.144001  	-0.012458 
2983.575659  	-0.013238 
2985.007318  	-0.013902 
2986.438976  	-0.014579 
2987.870634  	-0.015283 
2989.302292  	-0.016029 
2990.733950  	-0.016558 
2992.165608  	-0.017042 
2993.597267  	-0.017280 
2995.028925  	-0.017241 
2996.460583  	-0.017631 
2997.892241  	-0.017888 
2999.323899  	-0.017680 
3000.755558  	-0.017655 
3002.187216  	-0.017528 
3003.618874  	-0.017490 
3005.050532  	-0.017645 
3006.482190  	-0.017358 
3007.913849  	-0.017333 
3009.345507  	-0.017564 
3010.777165  	-0.017271 
3012.208823  	-0.017245 
3013.640481  	-0.017518 
3015.072139  	-0.017449 
3016.503798  	-0.017307 
3017.935456  	-0.017055 
3019.367114  	-0.016846 
3020.798772  	-0.016690 
3022.230430  	-0.016102 
3023.662089  	-0.015399 
3025.093747  	-0.014690 
3026.525405  	-0.013844 
3027.957063  	-0.013095 
3029.388721  	-0.012277 
3030.820380  	-0.011584 
3032.252038  	-0.011221 
3033.683696  	-0.010969 
3035.115354  	-0.011060 
3036.547012  	-0.011172 
3037.978670  	-0.011119 
3039.410329  	-0.011400 
3040.841987  	-0.011456 
3042.273645  	-0.011215 
3043.705303  	-0.011361 
3045.136961  	-0.011378 
3046.568620  	-0.011177 
3048.000278  	-0.011326 
3049.431936  	-0.011682 
3050.863594  	-0.012033 
3052.295252  	-0.012075 
3053.726910  	-0.011737 
3055.158569  	-0.011484 
3056.590227  	-0.011477 
3058.021885  	-0.011704 
3059.453543  	-0.011971 
3060.885201  	-0.012137 
3062.316860  	-0.012452 
3063.748518  	-0.012728 
3065.180176  	-0.012853 
3066.611834  	-0.013266 
3068.043492  	-0.013977 
3069.475151  	-0.014616 
3070.906809  	-0.014951 
3072.338467  	-0.015298 
3073.770125  	-0.015966 
3075.201783  	-0.016454 
3076.633441  	-0.016737 
3078.065100  	-0.017205 
3079.496758  	-0.017581 
3080.928416  	-0.017737 
3082.360074  	-0.017721 
3083.791732  	-0.017760 
3085.223391  	-0.018079 
3086.655049  	-0.018225 
3088.086707  	-0.018268 
3089.518365  	-0.018272 
3090.950023  	-0.017909 
3092.381682  	-0.018059 
3093.813340  	-0.018511 
3095.244998  	-0.018023 
3096.676656  	-0.017437 
3098.108314  	-0.017224 
3099.539972  	-0.016770 
3100.971631  	-0.016361 
3102.403289  	-0.015954 
3103.834947  	-0.015601 
3105.266605  	-0.015505 
3106.698263  	-0.015123 
3108.129922  	-0.014549 
3109.561580  	-0.013976 
3110.993238  	-0.013345 
3112.424896  	-0.012916 
3113.856554  	-0.012387 
3115.288212  	-0.011937 
3116.719871  	-0.011899 
3118.151529  	-0.011743 
3119.583187  	-0.011698 
3121.014845  	-0.011678 
3122.446503  	-0.011252 
3123.878162  	-0.011215 
3125.309820  	-0.011466 
3126.741478  	-0.011595 
3128.173136  	-0.012031 
3129.604794  	-0.012409 
3131.036453  	-0.012855 
3132.468111  	-0.013786 
3133.899769  	-0.014713 
3135.331427  	-0.015555 
3136.763085  	-0.016020 
3138.194743  	-0.016224 
3139.626402  	-0.016968 
3141.058060  	-0.017540 
3142.489718  	-0.017632 
3143.921376  	-0.017932 
3145.353034  	-0.018247 
3146.784693  	-0.018641 
3148.216351  	-0.018889 
3149.648009  	-0.018654 
3151.079667  	-0.018622 
3152.511325  	-0.018570 
3153.942983  	-0.018345 
3155.374642  	-0.018424 
3156.806300  	-0.018225 
3158.237958  	-0.017863 
3159.669616  	-0.017819 
3161.101274  	-0.017703 
3162.532933  	-0.017531 
3163.964591  	-0.017058 
3165.396249  	-0.016419 
3166.827907  	-0.016199 
3168.259565  	-0.015754 
3169.691224  	-0.015216 
3171.122882  	-0.015029 
3172.554540  	-0.014502 
3173.986198  	-0.013969 
3175.417856  	-0.013574 
3176.849514  	-0.012808 
3178.281173  	-0.012094 
3179.712831  	-0.011213 
3181.144489  	-0.010231 
3182.576147  	-0.009877 
3184.007805  	-0.009472 
3185.439464  	-0.008752 
3186.871122  	-0.008094 
3188.302780  	-0.007342 
3189.734438  	-0.006987 
3191.166096  	-0.006977 
3192.597755  	-0.006824 
3194.029413  	-0.007080 
3195.461071  	-0.007682 
3196.892729  	-0.008244 
3198.324387  	-0.008869 
3199.756045  	-0.009132 
3201.187704  	-0.009062 
3202.619362  	-0.009297 
3204.051020  	-0.009706 
3205.482678  	-0.009698 
3206.914336  	-0.009421 
3208.345995  	-0.009567 
3209.777653  	-0.009829 
3211.209311  	-0.009679 
3212.640969  	-0.009459 
3214.072627  	-0.009088 
3215.504285  	-0.008715 
3216.935944  	-0.008579 
3218.367602  	-0.007868 
3219.799260  	-0.006931 
3221.230918  	-0.006640 
3222.662576  	-0.006387 
3224.094235  	-0.005870 
3225.525893  	-0.005115 
3226.957551  	-0.004219 
3228.389209  	-0.003671 
3229.820867  	-0.003106 
3231.252526  	-0.002379 
3232.684184  	-0.001767 
3234.115842  	-0.000928 
3235.547500  	-0.000160 
3236.979158  	0.000433 
3238.410816  	0.001202 
3239.842475  	0.001762 
3241.274133  	0.002466 
3242.705791  	0.003502 
3244.137449  	0.004191 
3245.569107  	0.005000 
3247.000766  	0.006061 
3248.432424  	0.006836 
3249.864082  	0.007608 
3251.295740  	0.008264 
3252.727398  	0.008789 
3254.159057  	0.009514 
3255.590715  	0.010201 
3257.022373  	0.011057 
3258.454031  	0.011992 
3259.885689  	0.012492 
3261.317347  	0.013116 
3262.749006  	0.014146 
3264.180664  	0.015189 
3265.612322  	0.015910 
3267.043980  	0.016041 
3268.475638  	0.016405 
3269.907297  	0.017628 
3271.338955  	0.018790 
3272.770613  	0.019362 
3274.202271  	0.019683 
3275.633929  	0.020181 
3277.065587  	0.020927 
3278.497246  	0.021538 
3279.928904  	0.022137 
3281.360562  	0.022793 
3282.792220  	0.023271 
3284.223878  	0.023893 
3285.655537  	0.024470 
3287.087195  	0.024785 
3288.518853  	0.025377 
3289.950511  	0.025883 
3291.382169  	0.026060 
3292.813828  	0.026383 
3294.245486  	0.026428 
3295.677144  	0.026293 
3297.108802  	0.026602 
3298.540460  	0.026738 
3299.972118  	0.026525 
3301.403777  	0.026690 
3302.835435  	0.027037 
3304.267093  	0.027027 
3305.698751  	0.026715 
3307.130409  	0.026298 
3308.562068  	0.025994 
3309.993726  	0.025880 
3311.425384  	0.025589 
3312.857042  	0.025114 
3314.288700  	0.024921 
3315.720359  	0.024744 
3317.152017  	0.024197 
3318.583675  	0.023631 
3320.015333  	0.023181 
3321.446991  	0.022723 
3322.878649  	0.022107 
3324.310308  	0.021185 
3325.741966  	0.020457 
3327.173624  	0.020074 
3328.605282  	0.019399 
3330.036940  	0.018340 
3331.468599  	0.017256 
3332.900257  	0.016570 
3334.331915  	0.016059 
3335.763573  	0.014879 
3337.195231  	0.013623 
3338.626889  	0.013053 
3340.058548  	0.012297 
3341.490206  	0.011042 
3342.921864  	0.009748 
3344.353522  	0.008537 
3345.785180  	0.007458 
3347.216839  	0.006230 
3348.648497  	0.004917 
3350.080155  	0.003912 
3351.511813  	0.002990 
3352.943471  	0.001938 
3354.375130  	0.000718 
3355.806788  	-0.000382 
3357.238446  	-0.000970 
3358.670104  	-0.001618 
3360.101762  	-0.002554 
3361.533420  	-0.003399 
3362.965079  	-0.004223 
3364.396737  	-0.004851 
3365.828395  	-0.005513 
3367.260053  	-0.006410 
3368.691711  	-0.006807 
3370.123370  	-0.007025 
3371.555028  	-0.007417 
3372.986686  	-0.007420 
3374.418344  	-0.007550 
3375.850002  	-0.008065 
3377.281660  	-0.008489 
3378.713319  	-0.008849 
3380.144977  	-0.008891 
3381.576635  	-0.008774 
3383.008293  	-0.008815 
3384.439951  	-0.008845 
3385.871610  	-0.009305 
3387.303268  	-0.009783 
3388.734926  	-0.009699 
3390.166584  	-0.009898 
3391.598242  	-0.010147 
3393.029901  	-0.010124 
3394.461559  	-0.010577 
3395.893217  	-0.011051 
3397.324875  	-0.011416 
3398.756533  	-0.012093 
3400.188191  	-0.012661 
3401.619850  	-0.013242 
3403.051508  	-0.013712 
3404.483166  	-0.013785 
3405.914824  	-0.014242 
3407.346482  	-0.015055 
3408.778141  	-0.015598 
3410.209799  	-0.015932 
3411.641457  	-0.016265 
3413.073115  	-0.016831 
3414.504773  	-0.017447 
3415.936432  	-0.017996 
3417.368090  	-0.018581 
3418.799748  	-0.018726 
3420.231406  	-0.018762 
3421.663064  	-0.019311 
3423.094722  	-0.019757 
3424.526381  	-0.020016 
3425.958039  	-0.020395 
3427.389697  	-0.020708 
3428.821355  	-0.021009 
3430.253013  	-0.021245 
3431.684672  	-0.021403 
3433.116330  	-0.021575 
3434.547988  	-0.021772 
3435.979646  	-0.022106 
3437.411304  	-0.022249 
3438.842962  	-0.022373 
3440.274621  	-0.022771 
3441.706279  	-0.022749 
3443.137937  	-0.022786 
3444.569595  	-0.023254 
3446.001253  	-0.023267 
3447.432912  	-0.023642 
3448.864570  	-0.024501 
3450.296228  	-0.024724 
3451.727886  	-0.025053 
3453.159544  	-0.025286 
3454.591203  	-0.025068 
3456.022861  	-0.025387 
3457.454519  	-0.025544 
3458.886177  	-0.025316 
3460.317835  	-0.025549 
3461.749493  	-0.025585 
3463.181152  	-0.025572 
3464.612810  	-0.025903 
3466.044468  	-0.025902 
3467.476126  	-0.025831 
3468.907784  	-0.025856 
3470.339443  	-0.025950 
3471.771101  	-0.026192 
3473.202759  	-0.025887 
3474.634417  	-0.025510 
3476.066075  	-0.025794 
3477.497734  	-0.025990 
3478.929392  	-0.025799 
3480.361050  	-0.025316 
3481.792708  	-0.024956 
3483.224366  	-0.025249 
3484.656024  	-0.025425 
3486.087683  	-0.025427 
3487.519341  	-0.025796 
3488.950999  	-0.026115 
3490.382657  	-0.026415 
3491.814315  	-0.026588 
3493.245974  	-0.026372 
3494.677632  	-0.026305 
3496.109290  	-0.026213 
3497.540948  	-0.025963 
3498.972606  	-0.025979 
3500.404264  	-0.025963 
3501.835923  	-0.025945 
3503.267581  	-0.026037 
3504.699239  	-0.025894 
3506.130897  	-0.025764 
3507.562555  	-0.025811 
3508.994214  	-0.026005 
3510.425872  	-0.026146 
3511.857530  	-0.026035 
3513.289188  	-0.026151 
3514.720846  	-0.026255 
3516.152505  	-0.026133 
3517.584163  	-0.026462 
3519.015821  	-0.026683 
3520.447479  	-0.026328 
3521.879137  	-0.026240 
3523.310795  	-0.026491 
3524.742454  	-0.026701 
3526.174112  	-0.026594 
3527.605770  	-0.026364 
3529.037428  	-0.026545 
3530.469086  	-0.026659 
3531.900745  	-0.026831 
3533.332403  	-0.027324 
3534.764061  	-0.027200 
3536.195719  	-0.027118 
3537.627377  	-0.027595 
3539.059035  	-0.027292 
3540.490694  	-0.026902 
3541.922352  	-0.027146 
3543.354010  	-0.026987 
3544.785668  	-0.026665 
3546.217326  	-0.027016 
3547.648985  	-0.027841 
3549.080643  	-0.028397 
3550.512301  	-0.028229 
3551.943959  	-0.027838 
3553.375617  	-0.027756 
3554.807276  	-0.028108 
3556.238934  	-0.028570 
3557.670592  	-0.028467 
3559.102250  	-0.028364 
3560.533908  	-0.028733 
3561.965566  	-0.028751 
3563.397225  	-0.028617 
3564.828883  	-0.028161 
3566.260541  	-0.027203 
3567.692199  	-0.027799 
3569.123857  	-0.029043 
3570.555516  	-0.029001 
3571.987174  	-0.029163 
3573.418832  	-0.029343 
3574.850490  	-0.029121 
3576.282148  	-0.029180 
3577.713807  	-0.029493 
3579.145465  	-0.030007 
3580.577123  	-0.030142 
3582.008781  	-0.029688 
3583.440439  	-0.029639 
3584.872097  	-0.029368 
3586.303756  	-0.028647 
3587.735414  	-0.029220 
3589.167072  	-0.030328 
3590.598730  	-0.030279 
3592.030388  	-0.029980 
3593.462047  	-0.029526 
3594.893705  	-0.029337 
3596.325363  	-0.029795 
3597.757021  	-0.029839 
3599.188679  	-0.029419 
3600.620337  	-0.029723 
3602.051996  	-0.030609 
3603.483654  	-0.030747 
3604.915312  	-0.030643 
3606.346970  	-0.030722 
3607.778628  	-0.030180 
3609.210287  	-0.030268 
3610.641945  	-0.031301 
3612.073603  	-0.030945 
3613.505261  	-0.030458 
3614.936919  	-0.031136 
3616.368578  	-0.030790 
3617.800236  	-0.029681 
3619.231894  	-0.029676 
3620.663552  	-0.030976 
3622.095210  	-0.031642 
3623.526868  	-0.031168 
3624.958527  	-0.030558 
3626.390185  	-0.029969 
3627.821843  	-0.029050 
3629.253501  	-0.029536 
3630.685159  	-0.031276 
3632.116818  	-0.031093 
3633.548476  	-0.031002 
3634.980134  	-0.031394 
3636.411792  	-0.031727 
3637.843450  	-0.032160 
3639.275109  	-0.032167 
3640.706767  	-0.031886 
3642.138425  	-0.031986 
3643.570083  	-0.032220 
3645.001741  	-0.032223 
3646.433399  	-0.031635 
3647.865058  	-0.030483 
3649.296716  	-0.029715 
3650.728374  	-0.030241 
3652.160032  	-0.032498 
3653.591690  	-0.033305 
3655.023349  	-0.032749 
3656.455007  	-0.033100 
3657.886665  	-0.034017 
3659.318323  	-0.033730 
3660.749981  	-0.033440 
3662.181639  	-0.033436 
3663.613298  	-0.033650 
3665.044956  	-0.034047 
3666.476614  	-0.034072 
3667.908272  	-0.033649 
3669.339930  	-0.032814 
3670.771589  	-0.032981 
3672.203247  	-0.033969 
3673.634905  	-0.032991 
3675.066563  	-0.032028 
3676.498221  	-0.034331 
3677.929880  	-0.034739 
3679.361538  	-0.034556 
3680.793196  	-0.035156 
3682.224854  	-0.034720 
3683.656512  	-0.034411 
3685.088170  	-0.034433 
3686.519829  	-0.033640 
3687.951487  	-0.033435 
3689.383145  	-0.034414 
3690.814803  	-0.034460 
3692.246461  	-0.034382 
3693.678120  	-0.034453 
3695.109778  	-0.034211 
3696.541436  	-0.034084 
3697.973094  	-0.034092 
3699.404752  	-0.033783 
3700.836411  	-0.033364 
3702.268069  	-0.033744 
3703.699727  	-0.034391 
3705.131385  	-0.034239 
3706.563043  	-0.033908 
3707.994701  	-0.033589 
3709.426360  	-0.033224 
3710.858018  	-0.033203 
3712.289676  	-0.033532 
3713.721334  	-0.034597 
3715.152992  	-0.035399 
3716.584651  	-0.035052 
3718.016309  	-0.034738 
3719.447967  	-0.034742 
3720.879625  	-0.033908 
3722.311283  	-0.033115 
3723.742941  	-0.033203 
3725.174600  	-0.032994 
3726.606258  	-0.032715 
3728.037916  	-0.033215 
3729.469574  	-0.033444 
3730.901232  	-0.033255 
3732.332891  	-0.033374 
3733.764549  	-0.032680 
3735.196207  	-0.031325 
3736.627865  	-0.032977 
3738.059523  	-0.034815 
3739.491182  	-0.034546 
3740.922840  	-0.034883 
3742.354498  	-0.034242 
3743.786156  	-0.032360 
3745.217814  	-0.034463 
3746.649472  	-0.035761 
3748.081131  	-0.033785 
3749.512789  	-0.033148 
3750.944447  	-0.033551 
3752.376105  	-0.033739 
3753.807763  	-0.034957 
3755.239422  	-0.034917 
3756.671080  	-0.034592 
3758.102738  	-0.034745 
3759.534396  	-0.034498 
3760.966054  	-0.035236 
3762.397712  	-0.035906 
3763.829371  	-0.035087 
3765.261029  	-0.034537 
3766.692687  	-0.034655 
3768.124345  	-0.034520 
3769.556003  	-0.034509 
3770.987662  	-0.034616 
3772.419320  	-0.034818 
3773.850978  	-0.034940 
3775.282636  	-0.034859 
3776.714294  	-0.034839 
3778.145953  	-0.034367 
3779.577611  	-0.033907 
3781.009269  	-0.034493 
3782.440927  	-0.034556 
3783.872585  	-0.034093 
3785.304243  	-0.034088 
3786.735902  	-0.034370 
3788.167560  	-0.034762 
3789.599218  	-0.034687 
3791.030876  	-0.034283 
3792.462534  	-0.034730 
3793.894193  	-0.034939 
3795.325851  	-0.034226 
3796.757509  	-0.034034 
3798.189167  	-0.033975 
3799.620825  	-0.032981 
3801.052484  	-0.032259 
3802.484142  	-0.033571 
3803.915800  	-0.034422 
3805.347458  	-0.033672 
3806.779116  	-0.033403 
3808.210774  	-0.034641 
3809.642433  	-0.034655 
3811.074091  	-0.034079 
3812.505749  	-0.034126 
3813.937407  	-0.033864 
3815.369065  	-0.033335 
3816.800724  	-0.034053 
3818.232382  	-0.033889 
3819.664040  	-0.032267 
3821.095698  	-0.032050 
3822.527356  	-0.034508 
3823.959014  	-0.034312 
3825.390673  	-0.033501 
3826.822331  	-0.034073 
3828.253989  	-0.034343 
3829.685647  	-0.033545 
3831.117305  	-0.033212 
3832.548964  	-0.033479 
3833.980622  	-0.033454 
3835.412280  	-0.033161 
3836.843938  	-0.033134 
3838.275596  	-0.033163 
3839.707255  	-0.032655 
3841.138913  	-0.032664 
3842.570571  	-0.033275 
3844.002229  	-0.033634 
3845.433887  	-0.033840 
3846.865545  	-0.033694 
3848.297204  	-0.033408 
3849.728862  	-0.033581 
3851.160520  	-0.032943 
3852.592178  	-0.030962 
3854.023836  	-0.031053 
3855.455495  	-0.033289 
3856.887153  	-0.033746 
3858.318811  	-0.033965 
3859.750469  	-0.033526 
3861.182127  	-0.033073 
3862.613786  	-0.033100 
3864.045444  	-0.032492 
3865.477102  	-0.032666 
3866.908760  	-0.033622 
3868.340418  	-0.032788 
3869.772076  	-0.032016 
3871.203735  	-0.033279 
3872.635393  	-0.033106 
3874.067051  	-0.032874 
3875.498709  	-0.034114 
3876.930367  	-0.034121 
3878.362026  	-0.033226 
3879.793684  	-0.032839 
3881.225342  	-0.033213 
3882.657000  	-0.033467 
3884.088658  	-0.032575 
3885.520316  	-0.031598 
3886.951975  	-0.033165 
3888.383633  	-0.034123 
3889.815291  	-0.033292 
3891.246949  	-0.033083 
3892.678607  	-0.033808 
3894.110266  	-0.033755 
3895.541924  	-0.033476 
3896.973582  	-0.032904 
3898.405240  	-0.032243 
3899.836898  	-0.032407 
3901.268557  	-0.032521 
3902.700215  	-0.032158 
3904.131873  	-0.032297 
3905.563531  	-0.032782 
3906.995189  	-0.033378 
3908.426847  	-0.033880 
3909.858506  	-0.033919 
3911.290164  	-0.033975 
3912.721822  	-0.034190 
3914.153480  	-0.033862 
3915.585138  	-0.033075 
3917.016797  	-0.032474 
3918.448455  	-0.032458 
3919.880113  	-0.032693 
3921.311771  	-0.032933 
3922.743429  	-0.032948 
3924.175088  	-0.032754 
3925.606746  	-0.032997 
3927.038404  	-0.033288 
3928.470062  	-0.032963 
3929.901720  	-0.032660 
3931.333378  	-0.032391 
3932.765037  	-0.032135 
3934.196695  	-0.032793 
3935.628353  	-0.033204 
3937.060011  	-0.032722 
3938.491669  	-0.032614 
3939.923328  	-0.032624 
3941.354986  	-0.032039 
3942.786644  	-0.031865 
3944.218302  	-0.032382 
3945.649960  	-0.032654 
3947.081618  	-0.032662 
3948.513277  	-0.032617 
3949.944935  	-0.032575 
3951.376593  	-0.032653 
3952.808251  	-0.032742 
3954.239909  	-0.032594 
3955.671568  	-0.032458 
3957.103226  	-0.032697 
3958.534884  	-0.032809 
3959.966542  	-0.032531 
3961.398200  	-0.032358 
3962.829859  	-0.032315 
3964.261517  	-0.032304 
3965.693175  	-0.032354 
3967.124833  	-0.032340 
3968.556491  	-0.032304 
3969.988149  	-0.032129 
3971.419808  	-0.032059 
3972.851466  	-0.032383 
3974.283124  	-0.032316 
3975.714782  	-0.031932 
3977.146440  	-0.031996 
3978.578099  	-0.032054 
3980.009757  	-0.032164 
3981.441415  	-0.032481 
3982.873073  	-0.032213 
3984.304731  	-0.031873 
3985.736389  	-0.032191 
3987.168048  	-0.032396 
3988.599706  	-0.032158 
3990.031364  	-0.031987 
3991.463022  	-0.032106 
3992.894680  	-0.032253 
3994.326339  	-0.032336 
3995.757997  	-0.032632 
3997.189655  	-0.032712 
3998.621313  	-0.032244 
4000.052971  	-0.031972 