##TITLE=No Description
##DATA TYPE=INFRARED SPECTRUM
##XUNITS=1/CM
##YUNITS=%T
399.432634  	82.695372 
400.864292  	81.643189 
402.295950  	84.397272 
403.727608  	82.624375 
405.159267  	75.518556 
406.590925  	79.804383 
408.022583  	87.363747 
409.454241  	82.321130 
410.885899  	78.278627 
412.317558  	82.972851 
413.749216  	88.556635 
415.180874  	89.224407 
416.612532  	85.943590 
418.044190  	83.947146 
419.475848  	88.574759 
420.907507  	90.476424 
422.339165  	89.730021 
423.770823  	87.685264 
425.202481  	85.176143 
426.634139  	86.637156 
428.065798  	89.239727 
429.497456  	88.313562 
430.929114  	86.465259 
432.360772  	86.743093 
433.792430  	87.964647 
435.224089  	88.069100 
436.655747  	87.412880 
438.087405  	87.494319 
439.519063  	87.425049 
440.950721  	86.939363 
442.382379  	85.605243 
443.814038  	83.297838 
445.245696  	84.052450 
446.677354  	87.002139 
448.109012  	86.816602 
449.540670  	85.550918 
450.972329  	85.803724 
452.403987  	86.178807 
453.835645  	87.261772 
455.267303  	87.822887 
456.698961  	86.382423 
458.130619  	85.600853 
459.562278  	86.685629 
460.993936  	87.162757 
462.425594  	86.884155 
463.857252  	86.444639 
465.288910  	85.633260 
466.720569  	84.058354 
468.152227  	83.737105 
469.583885  	85.011558 
471.015543  	84.714510 
472.447201  	83.699286 
473.878860  	84.456242 
475.310518  	84.363435 
476.742176  	82.909523 
478.173834  	82.003822 
479.605492  	81.468338 
481.037150  	80.617601 
482.468809  	80.136988 
483.900467  	80.091271 
485.332125  	79.058744 
486.763783  	77.464231 
488.195441  	77.448045 
489.627100  	78.265170 
491.058758  	78.028284 
492.490416  	77.325854 
493.922074  	76.676650 
495.353732  	75.880680 
496.785391  	74.697675 
498.217049  	72.508073 
499.648707  	70.299137 
501.080365  	68.344715 
502.512023  	64.956621 
503.943681  	60.538091 
505.375340  	55.883156 
506.806998  	51.365881 
508.238656  	49.937152 
509.670314  	52.235002 
511.101972  	55.322421 
512.533631  	57.245237 
513.965289  	58.666448 
515.396947  	60.873136 
516.828605  	63.974331 
518.260263  	67.485562 
519.691921  	70.831926 
521.123580  	73.578256 
522.555238  	76.071249 
523.986896  	78.312962 
525.418554  	79.767240 
526.850212  	80.946179 
528.281871  	81.980843 
529.713529  	82.389689 
531.145187  	82.742043 
532.576845  	83.095855 
534.008503  	83.005866 
535.440162  	82.796143 
536.871820  	82.685933 
538.303478  	82.789835 
539.735136  	82.931089 
541.166794  	82.732499 
542.598452  	82.580528 
544.030111  	82.530598 
545.461769  	82.478995 
546.893427  	82.634680 
548.325085  	82.424680 
549.756743  	82.112986 
551.188402  	82.422208 
552.620060  	82.537833 
554.051718  	82.341882 
555.483376  	82.269737 
556.915034  	81.955957 
558.346692  	81.786373 
559.778351  	81.773651 
561.210009  	81.431037 
562.641667  	81.392963 
564.073325  	81.477868 
565.504983  	81.081734 
566.936642  	80.885740 
568.368300  	80.897041 
569.799958  	80.699322 
571.231616  	80.529378 
572.663274  	80.156847 
574.094933  	79.596679 
575.526591  	79.286689 
576.958249  	79.078824 
578.389907  	78.867707 
579.821565  	78.790167 
581.253223  	78.785270 
582.684882  	78.806201 
584.116540  	78.725641 
585.548198  	78.490190 
586.979856  	78.334329 
588.411514  	78.311581 
589.843173  	78.379534 
591.274831  	78.516206 
592.706489  	78.379984 
594.138147  	77.932414 
595.569805  	77.630636 
597.001464  	77.434444 
598.433122  	77.015979 
599.864780  	76.369410 
601.296438  	75.456922 
602.728096  	74.269581 
604.159754  	72.758109 
605.591413  	70.778823 
607.023071  	68.791432 
608.454729  	67.479633 
609.886387  	67.084234 
611.318045  	67.529376 
612.749704  	68.586978 
614.181362  	69.743910 
615.613020  	70.902405 
617.044678  	72.106620 
618.476336  	72.739114 
619.907994  	72.885338 
621.339653  	73.095792 
622.771311  	73.216315 
624.202969  	73.062008 
625.634627  	72.738380 
627.066285  	72.383847 
628.497944  	72.080254 
629.929602  	71.704514 
631.361260  	71.187723 
632.792918  	70.633532 
634.224576  	70.066485 
635.656235  	69.608707 
637.087893  	69.436651 
638.519551  	69.328764 
639.951209  	69.091758 
641.382867  	68.895112 
642.814525  	68.833212 
644.246184  	68.832670 
645.677842  	68.778807 
647.109500  	68.620086 
648.541158  	68.536553 
649.972816  	68.641058 
651.404475  	68.754153 
652.836133  	68.714458 
654.267791  	68.597142 
655.699449  	68.616934 
657.131107  	68.720407 
658.562766  	68.735940 
659.994424  	68.887154 
661.426082  	69.118053 
662.857740  	69.159379 
664.289398  	69.305461 
665.721056  	69.351389 
667.152715  	68.450520 
668.584373  	67.823240 
670.016031  	69.393310 
671.447689  	70.269461 
672.879347  	70.407502 
674.311006  	70.538983 
675.742664  	70.838165 
677.174322  	71.144150 
678.605980  	71.598393 
680.037638  	72.171599 
681.469296  	72.602693 
682.900955  	72.933869 
684.332613  	73.360089 
685.764271  	73.743542 
687.195929  	73.997769 
688.627587  	74.354651 
690.059246  	74.923462 
691.490904  	75.514189 
692.922562  	75.975872 
694.354220  	76.323193 
695.785878  	76.595473 
697.217537  	76.875074 
698.649195  	77.166402 
700.080853  	77.202675 
701.512511  	76.983466 
702.944169  	76.801528 
704.375827  	76.572105 
705.807486  	76.224224 
707.239144  	76.117122 
708.670802  	76.418735 
710.102460  	76.878635 
711.534118  	77.383762 
712.965777  	77.966888 
714.397435  	78.454157 
715.829093  	78.677867 
717.260751  	78.711563 
718.692409  	78.660727 
720.124067  	78.615349 
721.555726  	78.673652 
722.987384  	78.723283 
724.419042  	78.687973 
725.850700  	78.702595 
727.282358  	78.751833 
728.714017  	78.740777 
730.145675  	78.770497 
731.577333  	78.837246 
733.008991  	78.774168 
734.440649  	78.606951 
735.872308  	78.345054 
737.303966  	77.822283 
738.735624  	77.111333 
740.167282  	76.316766 
741.598940  	75.282759 
743.030598  	74.075722 
744.462257  	72.872326 
745.893915  	71.724455 
747.325573  	70.847091 
748.757231  	70.322735 
750.188889  	70.132125 
751.620548  	70.346912 
753.052206  	70.704830 
754.483864  	70.909564 
755.915522  	70.925114 
757.347180  	70.595819 
758.778839  	69.871176 
760.210497  	68.826024 
761.642155  	67.245257 
763.073813  	65.001860 
764.505471  	62.310162 
765.937129  	59.553039 
767.368788  	57.156873 
768.800446  	55.458024 
770.232104  	54.860322 
771.663762  	55.754121 
773.095420  	58.234056 
774.527079  	61.714483 
775.958737  	65.335477 
777.390395  	68.704370 
778.822053  	71.518567 
780.253711  	73.590768 
781.685369  	75.303845 
783.117028  	77.259019 
784.548686  	79.603373 
785.980344  	81.982804 
787.412002  	84.064766 
788.843660  	85.676524 
790.275319  	86.700275 
791.706977  	87.259496 
793.138635  	87.493691 
794.570293  	87.326923 
796.001951  	86.798455 
797.433610  	86.082015 
798.865268  	85.036382 
800.296926  	83.510749 
801.728584  	81.741864 
803.160242  	79.799835 
804.591900  	77.707969 
806.023559  	75.695912 
807.455217  	73.657314 
808.886875  	71.485493 
810.318533  	69.421749 
811.750191  	67.665793 
813.181850  	66.260235 
814.613508  	65.247354 
816.045166  	64.968212 
817.476824  	65.732776 
818.908482  	67.447655 
820.340141  	69.949716 
821.771799  	72.892960 
823.203457  	75.603506 
824.635115  	77.638971 
826.066773  	79.111959 
827.498431  	80.207618 
828.930090  	81.016429 
830.361748  	81.625653 
831.793406  	82.040386 
833.225064  	82.280327 
834.656722  	82.347912 
836.088381  	82.254620 
837.520039  	82.077764 
838.951697  	81.744845 
840.383355  	81.172758 
841.815013  	80.442752 
843.246671  	79.623845 
844.678330  	78.804791 
846.109988  	78.191846 
847.541646  	77.973569 
848.973304  	78.162453 
850.404962  	78.683590 
851.836621  	79.477397 
853.268279  	80.448492 
854.699937  	81.454894 
856.131595  	82.375220 
857.563253  	83.085093 
858.994912  	83.519540 
860.426570  	83.852896 
861.858228  	84.279910 
863.289886  	84.895182 
864.721544  	85.883651 
866.153202  	87.321054 
867.584861  	89.036601 
869.016519  	90.844030 
870.448177  	92.559910 
871.879835  	94.076314 
873.311493  	95.333686 
874.743152  	96.229716 
876.174810  	96.804647 
877.606468  	97.104213 
879.038126  	97.187466 
880.469784  	97.249531 
881.901443  	97.320470 
883.333101  	97.289355 
884.764759  	97.183162 
886.196417  	97.079448 
887.628075  	96.929095 
889.059733  	96.672448 
890.491392  	96.444959 
891.923050  	96.329899 
893.354708  	96.164946 
894.786366  	95.866222 
896.218024  	95.543787 
897.649683  	95.281427 
899.081341  	95.004297 
900.512999  	94.625825 
901.944657  	94.235021 
903.376315  	93.847752 
904.807973  	93.316278 
906.239632  	92.594359 
907.671290  	91.678782 
909.102948  	90.567103 
910.534606  	89.345760 
911.966264  	88.169613 
913.397923  	87.309914 
914.829581  	87.030896 
916.261239  	87.382433 
917.692897  	88.109062 
919.124555  	88.904268 
920.556214  	89.668691 
921.987872  	90.273382 
923.419530  	90.590904 
924.851188  	90.712216 
926.282846  	90.609676 
927.714504  	90.205824 
929.146163  	89.710293 
930.577821  	89.199820 
932.009479  	88.609642 
933.441137  	88.025325 
934.872795  	87.427865 
936.304454  	86.738375 
937.736112  	85.960064 
939.167770  	85.182977 
940.599428  	84.590363 
942.031086  	84.115921 
943.462744  	83.566939 
944.894403  	83.015088 
946.326061  	82.527374 
947.757719  	82.019376 
949.189377  	81.455814 
950.621035  	80.869377 
952.052694  	80.262860 
953.484352  	79.594220 
954.916010  	78.946448 
956.347668  	78.424815 
957.779326  	77.987392 
959.210985  	77.676927 
960.642643  	77.544437 
962.074301  	77.510448 
963.505959  	77.597243 
964.937617  	77.867664 
966.369275  	78.214918 
967.800934  	78.464568 
969.232592  	78.571310 
970.664250  	78.577664 
972.095908  	78.462805 
973.527566  	78.192385 
974.959225  	77.762459 
976.390883  	77.184744 
977.822541  	76.594814 
979.254199  	76.117599 
980.685857  	75.759932 
982.117516  	75.614644 
983.549174  	75.763933 
984.980832  	76.188447 
986.412490  	76.781739 
987.844148  	77.354813 
989.275806  	77.833109 
990.707465  	78.126144 
992.139123  	78.145897 
993.570781  	78.037499 
995.002439  	77.822400 
996.434097  	77.425499 
997.865756  	76.973475 
999.297414  	76.436951 
1000.729072  	75.777465 
1002.160730  	75.106810 
1003.592388  	74.317057 
1005.024046  	73.412088 
1006.455705  	72.487957 
1007.887363  	71.406857 
1009.319021  	70.164462 
1010.750679  	68.730998 
1012.182337  	66.958973 
1013.613996  	64.675493 
1015.045654  	61.531200 
1016.477312  	58.191438 
1017.908970  	56.629695 
1019.340628  	58.058431 
1020.772287  	61.746988 
1022.203945  	65.674771 
1023.635603  	68.412345 
1025.067261  	69.598296 
1026.498919  	69.321573 
1027.930577  	68.204513 
1029.362236  	66.878841 
1030.793894  	65.353499 
1032.225552  	63.785366 
1033.657210  	62.389483 
1035.088868  	61.087864 
1036.520527  	60.001578 
1037.952185  	59.063800 
1039.383843  	58.111393 
1040.815501  	57.163325 
1042.247159  	56.022968 
1043.678818  	54.637043 
1045.110476  	53.049673 
1046.542134  	51.254684 
1047.973792  	49.433378 
1049.405450  	47.464519 
1050.837108  	45.366285 
1052.268767  	43.390104 
1053.700425  	41.355675 
1055.132083  	39.442590 
1056.563741  	37.769054 
1057.995399  	36.104343 
1059.427058  	34.787871 
1060.858716  	33.785879 
1062.290374  	33.000479 
1063.722032  	32.700689 
1065.153690  	32.480003 
1066.585348  	32.278858 
1068.017007  	32.279419 
1069.448665  	32.214766 
1070.880323  	32.233132 
1072.311981  	32.271618 
1073.743639  	32.263791 
1075.175298  	32.500437 
1076.606956  	32.780977 
1078.038614  	33.326074 
1079.470272  	34.385877 
1080.901930  	35.702089 
1082.333589  	37.680707 
1083.765247  	40.466421 
1085.196905  	43.806033 
1086.628563  	47.388702 
1088.060221  	50.234393 
1089.491879  	51.942349 
1090.923538  	52.716587 
1092.355196  	52.628385 
1093.786854  	52.214484 
1095.218512  	51.699867 
1096.650170  	50.911987 
1098.081829  	50.203732 
1099.513487  	49.467272 
1100.945145  	48.587553 
1102.376803  	47.970377 
1103.808461  	47.502015 
1105.240120  	47.329983 
1106.671778  	47.667952 
1108.103436  	48.177293 
1109.535094  	48.923417 
1110.966752  	49.925097 
1112.398410  	51.219889 
1113.830069  	53.112106 
1115.261727  	55.286361 
1116.693385  	57.423439 
1118.125043  	59.494818 
1119.556701  	61.418693 
1120.988360  	63.365545 
1122.420018  	65.434464 
1123.851676  	67.582355 
1125.283334  	69.861333 
1126.714992  	72.213686 
1128.146650  	74.578460 
1129.578309  	76.874960 
1131.009967  	79.010942 
1132.441625  	81.016114 
1133.873283  	82.864458 
1135.304941  	84.497492 
1136.736600  	85.976711 
1138.168258  	87.306826 
1139.599916  	88.364135 
1141.031574  	89.205195 
1142.463232  	89.964758 
1143.894891  	90.619668 
1145.326549  	91.190567 
1146.758207  	91.670801 
1148.189865  	92.064728 
1149.621523  	92.470256 
1151.053181  	92.796589 
1152.484840  	93.020164 
1153.916498  	93.220429 
1155.348156  	93.290483 
1156.779814  	93.240242 
1158.211472  	93.082142 
1159.643131  	92.783651 
1161.074789  	92.472325 
1162.506447  	92.032222 
1163.938105  	91.366725 
1165.369763  	90.642030 
1166.801421  	89.837869 
1168.233080  	88.903228 
1169.664738  	87.803781 
1171.096396  	86.507999 
1172.528054  	85.081291 
1173.959712  	83.427147 
1175.391371  	81.518690 
1176.823029  	79.367675 
1178.254687  	76.920352 
1179.686345  	74.474598 
1181.118003  	72.367614 
1182.549662  	70.754093 
1183.981320  	69.445327 
1185.412978  	67.963704 
1186.844636  	66.194539 
1188.276294  	64.094220 
1189.707952  	61.679076 
1191.139611  	59.226453 
1192.571269  	56.635415 
1194.002927  	53.892247 
1195.434585  	51.103416 
1196.866243  	48.059997 
1198.297902  	44.923125 
1199.729560  	41.823536 
1201.161218  	38.969089 
1202.592876  	36.898916 
1204.024534  	35.542121 
1205.456193  	34.958627 
1206.887851  	35.024877 
1208.319509  	34.984229 
1209.751167  	34.644680 
1211.182825  	33.720311 
1212.614483  	32.084501 
1214.046142  	30.367939 
1215.477800  	28.690744 
1216.909458  	27.354868 
1218.341116  	26.729913 
1219.772774  	26.463474 
1221.204433  	26.745031 
1222.636091  	27.455566 
1224.067749  	28.249253 
1225.499407  	29.428209 
1226.931065  	30.671221 
1228.362723  	31.920824 
1229.794382  	33.481798 
1231.226040  	35.047384 
1232.657698  	36.872140 
1234.089356  	39.072241 
1235.521014  	41.372015 
1236.952673  	44.103517 
1238.384331  	47.186395 
1239.815989  	50.397776 
1241.247647  	53.734761 
1242.679305  	56.838220 
1244.110964  	59.535570 
1245.542622  	61.569154 
1246.974280  	62.526104 
1248.405938  	62.522422 
1249.837596  	61.936818 
1251.269254  	61.358988 
1252.700913  	61.544998 
1254.132571  	62.724825 
1255.564229  	64.988378 
1256.995887  	68.154713 
1258.427545  	71.595188 
1259.859204  	75.064582 
1261.290862  	78.395494 
1262.722520  	81.282473 
1264.154178  	83.628944 
1265.585836  	85.412941 
1267.017495  	86.618219 
1268.449153  	87.378840 
1269.880811  	87.834622 
1271.312469  	88.051879 
1272.744127  	88.128896 
1274.175785  	88.118661 
1275.607444  	88.146079 
1277.039102  	88.325299 
1278.470760  	88.561721 
1279.902418  	88.822348 
1281.334076  	89.109663 
1282.765735  	89.326392 
1284.197393  	89.465909 
1285.629051  	89.530099 
1287.060709  	89.462195 
1288.492367  	89.133530 
1289.924025  	88.378027 
1291.355684  	87.232843 
1292.787342  	85.702244 
1294.219000  	83.766083 
1295.650658  	81.453905 
1297.082316  	78.621161 
1298.513975  	75.359926 
1299.945633  	71.696606 
1301.377291  	67.660913 
1302.808949  	63.737485 
1304.240607  	60.087840 
1305.672266  	57.171489 
1307.103924  	55.401321 
1308.535582  	54.624659 
1309.967240  	55.081059 
1311.398898  	56.436389 
1312.830556  	58.370634 
1314.262215  	60.716013 
1315.693873  	62.704630 
1317.125531  	64.535038 
1318.557189  	66.959953 
1319.988847  	70.288827 
1321.420506  	74.381245 
1322.852164  	78.491166 
1324.283822  	82.162369 
1325.715480  	85.213867 
1327.147138  	87.690279 
1328.578796  	89.735961 
1330.010455  	91.264210 
1331.442113  	92.397940 
1332.873771  	93.207294 
1334.305429  	93.703366 
1335.737087  	93.928745 
1337.168746  	93.852322 
1338.600404  	93.737935 
1340.032062  	93.716508 
1341.463720  	93.716364 
1342.895378  	93.779632 
1344.327037  	93.818883 
1345.758695  	93.817350 
1347.190353  	93.708706 
1348.622011  	93.341022 
1350.053669  	92.858113 
1351.485327  	92.241435 
1352.916986  	91.470110 
1354.348644  	90.745611 
1355.780302  	90.022947 
1357.211960  	89.369358 
1358.643618  	88.846970 
1360.075277  	88.360866 
1361.506935  	87.958395 
1362.938593  	87.639099 
1364.370251  	87.445116 
1365.801909  	87.322904 
1367.233568  	87.190198 
1368.665226  	87.224153 
1370.096884  	87.442506 
1371.528542  	87.679405 
1372.960200  	87.954768 
1374.391858  	88.386367 
1375.823517  	88.943214 
1377.255175  	89.419449 
1378.686833  	89.919716 
1380.118491  	90.521563 
1381.550149  	91.074733 
1382.981808  	91.534752 
1384.413466  	91.778312 
1385.845124  	91.800227 
1387.276782  	91.839848 
1388.708440  	92.035729 
1390.140098  	92.238874 
1391.571757  	92.452421 
1393.003415  	92.557044 
1394.435073  	92.438878 
1395.866731  	92.177446 
1397.298389  	91.655633 
1398.730048  	90.769034 
1400.161706  	89.607707 
1401.593364  	88.023558 
1403.025022  	85.803292 
1404.456680  	82.705905 
1405.888339  	78.280215 
1407.319997  	72.892974 
1408.751655  	66.943159 
1410.183313  	60.549757 
1411.614971  	55.710013 
1413.046629  	53.994541 
1414.478288  	55.218296 
1415.909946  	59.957633 
1417.341604  	66.185751 
1418.773262  	73.616031 
1420.204920  	83.220705 
1421.636579  	88.269855 
1423.068237  	91.037392 
1424.499895  	93.608131 
1425.931553  	94.120539 
1427.363211  	93.776887 
1428.794870  	92.904933 
1430.226528  	91.241530 
1431.658186  	89.970750 
1433.089844  	88.768242 
1434.521502  	87.839002 
1435.953160  	87.703891 
1437.384819  	88.525236 
1438.816477  	89.486180 
1440.248135  	90.225035 
1441.679793  	90.622273 
1443.111451  	90.475855 
1444.543110  	89.748795 
1445.974768  	88.926122 
1447.406426  	88.649981 
1448.838084  	88.799713 
1450.269742  	89.050336 
1451.701400  	89.292029 
1453.133059  	89.338697 
1454.564717  	89.218136 
1455.996375  	88.947309 
1457.428033  	88.915732 
1458.859691  	89.436507 
1460.291350  	89.325465 
1461.723008  	88.736425 
1463.154666  	87.998303 
1464.586324  	87.055102 
1466.017982  	86.318168 
1467.449641  	85.604319 
1468.881299  	84.665559 
1470.312957  	83.781899 
1471.744615  	82.643256 
1473.176273  	81.580640 
1474.607931  	80.836246 
1476.039590  	79.434128 
1477.471248  	78.387361 
1478.902906  	78.357646 
1480.334564  	79.165899 
1481.766222  	81.199788 
1483.197881  	83.017469 
1484.629539  	84.386558 
1486.061197  	85.493450 
1487.492855  	85.859081 
1488.924513  	86.341221 
1490.356172  	86.274838 
1491.787830  	85.565966 
1493.219488  	84.942024 
1494.651146  	83.407763 
1496.082804  	81.575646 
1497.514462  	79.832275 
1498.946121  	77.066759 
1500.377779  	74.747439 
1501.809437  	72.097938 
1503.241095  	68.732695 
1504.672753  	66.084195 
1506.104412  	62.476249 
1507.536070  	57.080581 
1508.967728  	54.035993 
1510.399386  	50.059743 
1511.831044  	46.810356 
1513.262702  	44.449181 
1514.694361  	41.941409 
1516.126019  	40.876254 
1517.557677  	39.403702 
1518.989335  	37.266197 
1520.420993  	36.339001 
1521.852652  	33.844893 
1523.284310  	32.588620 
1524.715968  	32.220663 
1526.147626  	31.218348 
1527.579284  	32.086586 
1529.010943  	32.712174 
1530.442601  	33.411043 
1531.874259  	35.197888 
1533.305917  	36.764315 
1534.737575  	40.193302 
1536.169233  	42.793918 
1537.600892  	44.237503 
1539.032550  	48.016446 
1540.464208  	52.949440 
1541.895866  	56.830699 
1543.327524  	61.217443 
1544.759183  	64.745634 
1546.190841  	69.433138 
1547.622499  	73.131412 
1549.054157  	75.954620 
1550.485815  	80.399671 
1551.917473  	83.612187 
1553.349132  	85.821554 
1554.780790  	89.079233 
1556.212448  	91.117357 
1557.644106  	92.124341 
1559.075764  	94.246147 
1560.507423  	96.540230 
1561.939081  	97.174389 
1563.370739  	97.490954 
1564.802397  	97.867346 
1566.234055  	98.435277 
1567.665714  	98.823797 
1569.097372  	99.419062 
1570.529030  	100.454902 
1571.960688  	101.066808 
1573.392346  	101.320445 
1574.824004  	101.386442 
1576.255663  	101.319985 
1577.687321  	101.098032 
1579.118979  	100.699156 
1580.550637  	99.969315 
1581.982295  	98.816386 
1583.413954  	97.253385 
1584.845612  	94.906345 
1586.277270  	91.951497 
1587.708928  	88.284538 
1589.140586  	83.580986 
1590.572245  	78.940511 
1592.003903  	74.347762 
1593.435561  	70.535240 
1594.867219  	68.610642 
1596.298877  	67.611009 
1597.730535  	68.393239 
1599.162194  	70.391270 
1600.593852  	72.611297 
1602.025510  	75.641990 
1603.457168  	78.337726 
1604.888826  	80.457663 
1606.320485  	82.295093 
1607.752143  	83.229763 
1609.183801  	83.853371 
1610.615459  	84.197015 
1612.047117  	84.250720 
1613.478775  	84.962890 
1614.910434  	85.673634 
1616.342092  	87.179199 
1617.773750  	90.598701 
1619.205408  	92.722418 
1620.637066  	94.621151 
1622.068725  	96.496190 
1623.500383  	97.675377 
1624.932041  	98.957037 
1626.363699  	99.462731 
1627.795357  	99.350848 
1629.227016  	99.636182 
1630.658674  	99.225765 
1632.090332  	98.297346 
1633.521990  	97.540673 
1634.953648  	96.247670 
1636.385306  	95.660564 
1637.816965  	96.587527 
1639.248623  	97.355836 
1640.680281  	98.780967 
1642.111939  	99.740217 
1643.543597  	100.166025 
1644.975256  	100.713468 
1646.406914  	100.508737 
1647.838572  	100.957009 
1649.270230  	101.325849 
1650.701888  	100.795613 
1652.133547  	100.820307 
1653.565205  	100.469518 
1654.996863  	100.007864 
1656.428521  	100.194283 
1657.860179  	99.456427 
1659.291837  	98.969014 
1660.723496  	98.661263 
1662.155154  	97.525553 
1663.586812  	97.186704 
1665.018470  	96.542143 
1666.450128  	95.407313 
1667.881787  	94.986687 
1669.313445  	93.580873 
1670.745103  	92.290570 
1672.176761  	91.591645 
1673.608419  	89.565519 
1675.040077  	88.139248 
1676.471736  	86.136111 
1677.903394  	83.330252 
1679.335052  	81.518116 
1680.766710  	78.239787 
1682.198368  	74.961844 
1683.630027  	73.075169 
1685.061685  	67.221961 
1686.493343  	63.762622 
1687.925001  	60.701930 
1689.356659  	55.667495 
1690.788318  	51.803683 
1692.219976  	47.561656 
1693.651634  	43.157664 
1695.083292  	40.674146 
1696.514950  	37.510676 
1697.946608  	35.532068 
1699.378267  	35.864228 
1700.809925  	38.576818 
1702.241583  	41.503842 
1703.673241  	43.789333 
1705.104899  	47.267916 
1706.536558  	51.714060 
1707.968216  	55.243759 
1709.399874  	58.123876 
1710.831532  	61.044250 
1712.263190  	63.848616 
1713.694849  	65.887947 
1715.126507  	68.144132 
1716.558165  	70.358638 
1717.989823  	72.047129 
1719.421481  	74.367104 
1720.853139  	75.242542 
1722.284798  	75.398856 
1723.716456  	75.854503 
1725.148114  	75.658144 
1726.579772  	75.290418 
1728.011430  	75.332037 
1729.443089  	75.450824 
1730.874747  	76.505747 
1732.306405  	77.763973 
1733.738063  	79.336916 
1735.169721  	83.963245 
1736.601379  	86.403019 
1738.033038  	88.382044 
1739.464696  	91.930883 
1740.896354  	94.770138 
1742.328012  	97.146964 
1743.759670  	99.553081 
1745.191329  	101.046425 
1746.622987  	102.764887 
1748.054645  	103.777592 
1749.486303  	104.442302 
1750.917961  	105.760761 
1752.349620  	106.096483 
1753.781278  	106.694475 
1755.212936  	107.195200 
1756.644594  	107.019473 
1758.076252  	107.690571 
1759.507910  	107.859765 
1760.939569  	107.597401 
1762.371227  	108.145958 
1763.802885  	108.102051 
1765.234543  	108.149698 
1766.666201  	108.349407 
1768.097860  	107.995280 
1769.529518  	108.365287 
1770.961176  	108.434434 
1772.392834  	108.021039 
1773.824492  	108.654329 
1775.256150  	108.509218 
1776.687809  	108.411405 
1778.119467  	108.732406 
1779.551125  	108.395783 
1780.982783  	108.525313 
1782.414441  	108.748230 
1783.846100  	108.436432 
1785.277758  	108.637944 
1786.709416  	108.591299 
1788.141074  	108.486621 
1789.572732  	108.662878 
1791.004391  	108.296338 
1792.436049  	108.483743 
1793.867707  	108.836211 
1795.299365  	108.495620 
1796.731023  	108.746865 
1798.162681  	108.786615 
1799.594340  	108.590808 
1801.025998  	108.970755 
1802.457656  	108.856240 
1803.889314  	108.873886 
1805.320972  	109.099512 
1806.752631  	108.870265 
1808.184289  	109.082593 
1809.615947  	109.170260 
1811.047605  	108.889755 
1812.479263  	109.160307 
1813.910922  	109.147001 
1815.342580  	109.166912 
1816.774238  	109.438088 
1818.205896  	109.231233 
1819.637554  	109.381513 
1821.069212  	109.540710 
1822.500871  	109.362035 
1823.932529  	109.586466 
1825.364187  	109.504124 
1826.795845  	109.526953 
1828.227503  	109.827150 
1829.659162  	109.496317 
1831.090820  	109.673410 
1832.522478  	109.942621 
1833.954136  	109.757977 
1835.385794  	110.031685 
1836.817452  	109.950637 
1838.249111  	109.804406 
1839.680769  	110.219799 
1841.112427  	110.050254 
1842.544085  	109.989093 
1843.975743  	110.265596 
1845.407402  	110.057586 
1846.839060  	110.271349 
1848.270718  	110.278054 
1849.702376  	110.176511 
1851.134034  	110.428305 
1852.565693  	110.187152 
1853.997351  	110.271438 
1855.429009  	110.542018 
1856.860667  	110.176084 
1858.292325  	110.366904 
1859.723983  	110.496263 
1861.155642  	110.213523 
1862.587300  	110.471068 
1864.018958  	110.376233 
1865.450616  	110.256832 
1866.882274  	110.360534 
1868.313933  	109.964844 
1869.745591  	110.300839 
1871.177249  	110.485899 
1872.608907  	110.083438 
1874.040565  	110.298900 
1875.472224  	110.177713 
1876.903882  	110.046879 
1878.335540  	110.480229 
1879.767198  	110.267442 
1881.198856  	110.231631 
1882.630514  	110.346382 
1884.062173  	109.998284 
1885.493831  	110.220758 
1886.925489  	110.193021 
1888.357147  	109.886267 
1889.788805  	110.098329 
1891.220464  	109.857111 
1892.652122  	109.878073 
1894.083780  	110.054933 
1895.515438  	109.651152 
1896.947096  	109.845177 
1898.378754  	109.868717 
1899.810413  	109.536198 
1901.242071  	109.757281 
1902.673729  	109.507121 
1904.105387  	109.355251 
1905.537045  	109.570629 
1906.968704  	109.302322 
1908.400362  	109.566689 
1909.832020  	109.786816 
1911.263678  	109.635645 
1912.695336  	110.060027 
1914.126995  	109.971519 
1915.558653  	110.011674 
1916.990311  	110.482418 
1918.421969  	110.011329 
1919.853627  	110.087940 
1921.285285  	110.280737 
1922.716944  	109.870403 
1924.148602  	110.322255 
1925.580260  	110.335831 
1927.011918  	110.153684 
1928.443576  	110.705304 
1929.875235  	110.487169 
1931.306893  	110.539620 
1932.738551  	110.898054 
1934.170209  	110.570235 
1935.601867  	110.969113 
1937.033525  	110.871108 
1938.465184  	110.301061 
1939.896842  	110.736860 
1941.328500  	110.497631 
1942.760158  	110.465909 
1944.191816  	110.998200 
1945.623475  	110.418553 
1947.055133  	110.533296 
1948.486791  	110.698711 
1949.918449  	110.321025 
1951.350107  	110.719591 
1952.781766  	110.419959 
1954.213424  	110.430886 
1955.645082  	111.050064 
1957.076740  	110.342812 
1958.508398  	110.608701 
1959.940056  	111.018264 
1961.371715  	110.185928 
1962.803373  	110.562303 
1964.235031  	110.342071 
1965.666689  	109.905113 
1967.098347  	110.704388 
1968.530006  	110.383435 
1969.961664  	110.519760 
1971.393322  	110.712709 
1972.824980  	110.153976 
1974.256638  	111.219808 
1975.688297  	111.005498 
1977.119955  	109.925127 
1978.551613  	110.655658 
1979.983271  	110.583402 
1981.414929  	110.749815 
1982.846587  	110.818181 
1984.278246  	110.087939 
1985.709904  	110.880990 
1987.141562  	110.987163 
1988.573220  	110.495483 
1990.004878  	111.110558 
1991.436537  	110.334013 
1992.868195  	110.316642 
1994.299853  	111.552763 
1995.731511  	111.038225 
1997.163169  	110.863051 
1998.594827  	110.822212 
2000.026486  	110.504528 
2001.458144  	111.146481 
2002.889802  	110.496601 
2004.321460  	110.181743 
2005.753118  	111.260752 
2007.184777  	110.744630 
2008.616435  	110.569204 
2010.048093  	110.538310 
2011.479751  	109.935261 
2012.911409  	110.775754 
2014.343068  	110.513010 
2015.774726  	109.724547 
2017.206384  	110.032937 
2018.638042  	109.578834 
2020.069700  	110.172202 
2021.501358  	110.559079 
2022.933017  	109.763482 
2024.364675  	110.647349 
2025.796333  	110.357316 
2027.227991  	109.584460 
2028.659649  	110.631136 
2030.091308  	110.122598 
2031.522966  	109.938239 
2032.954624  	110.478904 
2034.386282  	109.751947 
2035.817940  	110.439714 
2037.249599  	110.512106 
2038.681257  	109.809037 
2040.112915  	110.722380 
2041.544573  	110.428215 
2042.976231  	110.185888 
2044.407889  	110.950668 
2045.839548  	110.419145 
2047.271206  	110.598426 
2048.702864  	110.859278 
2050.134522  	110.253935 
2051.566180  	110.609972 
2052.997839  	110.509687 
2054.429497  	110.242690 
2055.861155  	110.530720 
2057.292813  	110.383234 
2058.724471  	110.950042 
2060.156129  	111.223299 
2061.587788  	110.549500 
2063.019446  	111.025321 
2064.451104  	111.296229 
2065.882762  	110.992555 
2067.314420  	111.332619 
2068.746079  	111.190150 
2070.177737  	111.158903 
2071.609395  	111.194147 
2073.041053  	110.745016 
2074.472711  	111.042176 
2075.904370  	111.056439 
2077.336028  	110.713642 
2078.767686  	111.147855 
2080.199344  	111.170255 
2081.631002  	111.128409 
2083.062660  	111.306245 
2084.494319  	110.964846 
2085.925977  	110.992740 
2087.357635  	110.980737 
2088.789293  	110.791436 
2090.220951  	111.148634 
2091.652610  	111.049469 
2093.084268  	110.941621 
2094.515926  	111.236068 
2095.947584  	111.141581 
2097.379242  	111.379481 
2098.810901  	111.328606 
2100.242559  	110.806451 
2101.674217  	111.011776 
2103.105875  	110.965414 
2104.537533  	110.956499 
2105.969191  	111.496094 
2107.400850  	111.302843 
2108.832508  	111.126680 
2110.264166  	111.131636 
2111.695824  	110.829661 
2113.127482  	110.992780 
2114.559141  	110.942643 
2115.990799  	110.901421 
2117.422457  	111.373164 
2118.854115  	111.229504 
2120.285773  	111.191437 
2121.717431  	111.330036 
2123.149090  	110.935772 
2124.580748  	111.166884 
2126.012406  	111.268566 
2127.444064  	110.818825 
2128.875722  	110.966694 
2130.307381  	110.857609 
2131.739039  	110.829915 
2133.170697  	111.165643 
2134.602355  	110.807941 
2136.034013  	110.985821 
2137.465672  	111.083190 
2138.897330  	110.503622 
2140.328988  	110.887515 
2141.760646  	110.857042 
2143.192304  	110.427817 
2144.623962  	110.595080 
2146.055621  	110.249643 
2147.487279  	110.638027 
2148.918937  	110.921886 
2150.350595  	109.996469 
2151.782253  	110.202804 
2153.213912  	110.178114 
2154.645570  	109.901090 
2156.077228  	110.815604 
2157.508886  	110.333811 
2158.940544  	109.932380 
2160.372202  	110.005593 
2161.803861  	109.059847 
2163.235519  	110.168620 
2164.667177  	111.222826 
2166.098835  	110.644192 
2167.530493  	110.934922 
2168.962152  	111.089869 
2170.393810  	111.120558 
2171.825468  	110.858365 
2173.257126  	109.898368 
2174.688784  	110.368862 
2176.120443  	110.670334 
2177.552101  	110.109365 
2178.983759  	110.801984 
2180.415417  	110.960434 
2181.847075  	110.793283 
2183.278733  	111.148905 
2184.710392  	110.519956 
2186.142050  	110.414206 
2187.573708  	110.550994 
2189.005366  	110.062490 
2190.437024  	110.417458 
2191.868683  	110.527723 
2193.300341  	110.406004 
2194.731999  	110.749787 
2196.163657  	110.238625 
2197.595315  	110.033994 
2199.026974  	110.430795 
2200.458632  	110.393173 
2201.890290  	110.726190 
2203.321948  	110.839329 
2204.753606  	110.726026 
2206.185264  	110.977165 
2207.616923  	110.722555 
2209.048581  	110.800637 
2210.480239  	111.151937 
2211.911897  	110.920290 
2213.343555  	111.041529 
2214.775214  	111.008487 
2216.206872  	110.844164 
2217.638530  	111.074836 
2219.070188  	110.653861 
2220.501846  	110.402038 
2221.933504  	110.615090 
2223.365163  	110.566904 
2224.796821  	110.957050 
2226.228479  	110.936725 
2227.660137  	110.561272 
2229.091795  	110.983283 
2230.523454  	111.026768 
2231.955112  	110.940109 
2233.386770  	111.128710 
2234.818428  	110.773482 
2236.250086  	110.908813 
2237.681745  	111.187335 
2239.113403  	110.862404 
2240.545061  	111.021109 
2241.976719  	111.153845 
2243.408377  	110.984522 
2244.840035  	111.018032 
2246.271694  	110.946334 
2247.703352  	111.148716 
2249.135010  	111.198023 
2250.566668  	110.858734 
2251.998326  	111.005990 
2253.429985  	110.968875 
2254.861643  	110.794644 
2256.293301  	110.991079 
2257.724959  	110.775628 
2259.156617  	110.750984 
2260.588276  	111.037551 
2262.019934  	110.870062 
2263.451592  	110.821253 
2264.883250  	110.810620 
2266.314908  	110.863284 
2267.746566  	111.220696 
2269.178225  	111.064128 
2270.609883  	110.825832 
2272.041541  	110.825493 
2273.473199  	110.650051 
2274.904857  	110.897825 
2276.336516  	111.152516 
2277.768174  	111.040925 
2279.199832  	111.173954 
2280.631490  	111.059575 
2282.063148  	110.794031 
2283.494806  	110.914651 
2284.926465  	111.047805 
2286.358123  	111.136990 
2287.789781  	111.002772 
2289.221439  	110.819666 
2290.653097  	110.997569 
2292.084756  	110.888143 
2293.516414  	110.659880 
2294.948072  	110.769362 
2296.379730  	110.623721 
2297.811388  	110.478407 
2299.243047  	110.550795 
2300.674705  	110.368253 
2302.106363  	110.158531 
2303.538021  	110.016357 
2304.969679  	109.898127 
2306.401337  	109.815019 
2307.832996  	109.534295 
2309.264654  	109.395534 
2310.696312  	109.381761 
2312.127970  	109.149061 
2313.559628  	109.085538 
2314.991287  	109.069031 
2316.422945  	108.901061 
2317.854603  	108.735963 
2319.286261  	108.271382 
2320.717919  	107.807232 
2322.149577  	107.621793 
2323.581236  	107.448981 
2325.012894  	107.486760 
2326.444552  	107.428833 
2327.876210  	107.066972 
2329.307868  	106.826030 
2330.739527  	106.562493 
2332.171185  	106.406388 
2333.602843  	106.569207 
2335.034501  	106.571826 
2336.466159  	106.519454 
2337.897818  	106.451538 
2339.329476  	106.227160 
2340.761134  	106.151376 
2342.192792  	106.056106 
2343.624450  	106.013622 
2345.056108  	106.270573 
2346.487767  	106.830737 
2347.919425  	107.813453 
2349.351083  	108.266352 
2350.782741  	107.511228 
2352.214399  	106.462973 
2353.646058  	105.909696 
2355.077716  	105.417742 
2356.509374  	105.017737 
2357.941032  	104.636145 
2359.372690  	104.365374 
2360.804349  	104.457457 
2362.236007  	104.524933 
2363.667665  	104.758332 
2365.099323  	105.113577 
2366.530981  	105.355869 
2367.962639  	105.810736 
2369.394298  	106.214538 
2370.825956  	106.652113 
2372.257614  	107.261304 
2373.689272  	107.617423 
2375.120930  	108.093415 
2376.552589  	108.707108 
2377.984247  	109.091064 
2379.415905  	109.586670 
2380.847563  	110.133462 
2382.279221  	110.595234 
2383.710879  	111.056176 
2385.142538  	111.309013 
2386.574196  	111.534593 
2388.005854  	111.730409 
2389.437512  	111.607929 
2390.869170  	111.536538 
2392.300829  	111.617780 
2393.732487  	111.633663 
2395.164145  	111.689581 
2396.595803  	111.729175 
2398.027461  	111.751431 
2399.459120  	111.771496 
2400.890778  	111.753982 
2402.322436  	111.789384 
2403.754094  	111.679219 
2405.185752  	111.578684 
2406.617410  	111.734388 
2408.049069  	111.736504 
2409.480727  	111.684753 
2410.912385  	111.743534 
2412.344043  	111.661238 
2413.775701  	111.693209 
2415.207360  	111.757254 
2416.639018  	111.697817 
2418.070676  	111.833556 
2419.502334  	111.878473 
2420.933992  	111.756314 
2422.365651  	111.759790 
2423.797309  	111.744058 
2425.228967  	111.812242 
2426.660625  	111.872603 
2428.092283  	111.763942 
2429.523941  	111.779386 
2430.955600  	111.710873 
2432.387258  	111.598586 
2433.818916  	111.782766 
2435.250574  	111.872212 
2436.682232  	111.822041 
2438.113891  	111.818408 
2439.545549  	111.771737 
2440.977207  	111.812287 
2442.408865  	111.766007 
2443.840523  	111.659383 
2445.272181  	111.749165 
2446.703840  	111.738413 
2448.135498  	111.709668 
2449.567156  	111.785775 
2450.998814  	111.757518 
2452.430472  	111.840836 
2453.862131  	111.890060 
2455.293789  	111.778248 
2456.725447  	111.817612 
2458.157105  	111.794097 
2459.588763  	111.724839 
2461.020422  	111.775186 
2462.452080  	111.710941 
2463.883738  	111.714949 
2465.315396  	111.752091 
2466.747054  	111.652406 
2468.178712  	111.682342 
2469.610371  	111.670563 
2471.042029  	111.604563 
2472.473687  	111.699970 
2473.905345  	111.692697 
2475.337003  	111.646304 
2476.768662  	111.616359 
2478.200320  	111.506779 
2479.631978  	111.550573 
2481.063636  	111.585771 
2482.495294  	111.545381 
2483.926953  	111.583892 
2485.358611  	111.507805 
2486.790269  	111.526687 
2488.221927  	111.679630 
2489.653585  	111.681265 
2491.085243  	111.759770 
2492.516902  	111.788889 
2493.948560  	111.636530 
2495.380218  	111.605959 
2496.811876  	111.583564 
2498.243534  	111.626493 
2499.675193  	111.761993 
2501.106851  	111.709091 
2502.538509  	111.720907 
2503.970167  	111.786667 
2505.401825  	111.668767 
2506.833483  	111.651555 
2508.265142  	111.760302 
2509.696800  	111.840440 
2511.128458  	111.817291 
2512.560116  	111.718843 
2513.991774  	111.795009 
2515.423433  	111.842386 
2516.855091  	111.750730 
2518.286749  	111.761235 
2519.718407  	111.730395 
2521.150065  	111.784611 
2522.581724  	111.929793 
2524.013382  	111.831473 
2525.445040  	111.809674 
2526.876698  	111.904846 
2528.308356  	111.928577 
2529.740014  	112.031143 
2531.171673  	111.926320 
2532.603331  	111.797025 
2534.034989  	111.940934 
2535.466647  	111.915036 
2536.898305  	111.924365 
2538.329964  	112.047126 
2539.761622  	111.900115 
2541.193280  	111.874480 
2542.624938  	111.954576 
2544.056596  	111.871622 
2545.488254  	111.855031 
2546.919913  	111.802972 
2548.351571  	111.777004 
2549.783229  	111.803382 
2551.214887  	111.706721 
2552.646545  	111.782291 
2554.078204  	111.862364 
2555.509862  	111.764828 
2556.941520  	111.759789 
2558.373178  	111.633645 
2559.804836  	111.572635 
2561.236495  	111.738006 
2562.668153  	111.697799 
2564.099811  	111.731690 
2565.531469  	111.815064 
2566.963127  	111.587148 
2568.394785  	111.508962 
2569.826444  	111.597211 
2571.258102  	111.668361 
2572.689760  	111.781800 
2574.121418  	111.670521 
2575.553076  	111.599057 
2576.984735  	111.694663 
2578.416393  	111.661338 
2579.848051  	111.754013 
2581.279709  	111.775813 
2582.711367  	111.566293 
2584.143026  	111.643571 
2585.574684  	111.769385 
2587.006342  	111.638603 
2588.438000  	111.503004 
2589.869658  	111.457607 
2591.301316  	111.568282 
2592.732975  	111.595895 
2594.164633  	111.486454 
2595.596291  	111.589763 
2597.027949  	111.631918 
2598.459607  	111.530890 
2599.891266  	111.628358 
2601.322924  	111.726202 
2602.754582  	111.719842 
2604.186240  	111.677923 
2605.617898  	111.588006 
2607.049556  	111.574933 
2608.481215  	111.539088 
2609.912873  	111.501455 
2611.344531  	111.605937 
2612.776189  	111.672758 
2614.207847  	111.704599 
2615.639506  	111.731824 
2617.071164  	111.665425 
2618.502822  	111.592211 
2619.934480  	111.499611 
2621.366138  	111.497809 
2622.797797  	111.649477 
2624.229455  	111.687610 
2625.661113  	111.652067 
2627.092771  	111.644211 
2628.524429  	111.610603 
2629.956087  	111.601466 
2631.387746  	111.532163 
2632.819404  	111.521605 
2634.251062  	111.642932 
2635.682720  	111.601954 
2637.114378  	111.533163 
2638.546037  	111.541599 
2639.977695  	111.462467 
2641.409353  	111.501718 
2642.841011  	111.583482 
2644.272669  	111.522206 
2645.704328  	111.518726 
2647.135986  	111.516892 
2648.567644  	111.493351 
2649.999302  	111.524236 
2651.430960  	111.477817 
2652.862618  	111.460253 
2654.294277  	111.478782 
2655.725935  	111.409061 
2657.157593  	111.395933 
2658.589251  	111.392919 
2660.020909  	111.338933 
2661.452568  	111.310738 
2662.884226  	111.226479 
2664.315884  	111.173200 
2665.747542  	111.190597 
2667.179200  	111.142315 
2668.610858  	111.104527 
2670.042517  	111.084588 
2671.474175  	111.060301 
2672.905833  	111.061745 
2674.337491  	110.990249 
2675.769149  	110.949559 
2677.200808  	110.976084 
2678.632466  	110.926429 
2680.064124  	110.893848 
2681.495782  	110.839049 
2682.927440  	110.727969 
2684.359099  	110.731245 
2685.790757  	110.730227 
2687.222415  	110.659014 
2688.654073  	110.609794 
2690.085731  	110.531397 
2691.517389  	110.466717 
2692.949048  	110.391418 
2694.380706  	110.294238 
2695.812364  	110.281963 
2697.244022  	110.232117 
2698.675680  	110.157041 
2700.107339  	110.142757 
2701.538997  	110.057357 
2702.970655  	109.993771 
2704.402313  	109.986371 
2705.833971  	109.928467 
2707.265630  	109.909558 
2708.697288  	109.862967 
2710.128946  	109.788712 
2711.560604  	109.793139 
2712.992262  	109.733439 
2714.423920  	109.659154 
2715.855579  	109.632778 
2717.287237  	109.553448 
2718.718895  	109.521775 
2720.150553  	109.477126 
2721.582211  	109.363371 
2723.013870  	109.313332 
2724.445528  	109.218556 
2725.877186  	109.101424 
2727.308844  	109.061575 
2728.740502  	108.997983 
2730.172160  	108.951531 
2731.603819  	108.857706 
2733.035477  	108.710161 
2734.467135  	108.705638 
2735.898793  	108.678904 
2737.330451  	108.585466 
2738.762110  	108.577119 
2740.193768  	108.483658 
2741.625426  	108.373261 
2743.057084  	108.415854 
2744.488742  	108.473671 
2745.920401  	108.487846 
2747.352059  	108.438456 
2748.783717  	108.399874 
2750.215375  	108.447166 
2751.647033  	108.426285 
2753.078691  	108.399626 
2754.510350  	108.416427 
2755.942008  	108.334599 
2757.373666  	108.266946 
2758.805324  	108.238863 
2760.236982  	108.193723 
2761.668641  	108.197205 
2763.100299  	108.146122 
2764.531957  	108.087091 
2765.963615  	108.105014 
2767.395273  	108.050188 
2768.826931  	107.969227 
2770.258590  	107.882186 
2771.690248  	107.737768 
2773.121906  	107.662536 
2774.553564  	107.587206 
2775.985222  	107.440242 
2777.416881  	107.292158 
2778.848539  	107.104276 
2780.280197  	106.911934 
2781.711855  	106.675504 
2783.143513  	106.347463 
2784.575172  	106.078936 
2786.006830  	105.796010 
2787.438488  	105.408695 
2788.870146  	105.052496 
2790.301804  	104.729171 
2791.733462  	104.402072 
2793.165121  	104.086524 
2794.596779  	103.845622 
2796.028437  	103.745920 
2797.460095  	103.694790 
2798.891753  	103.737275 
2800.323412  	103.927594 
2801.755070  	104.105322 
2803.186728  	104.314168 
2804.618386  	104.554993 
2806.050044  	104.737855 
2807.481703  	105.001298 
2808.913361  	105.251167 
2810.345019  	105.399342 
2811.776677  	105.555553 
2813.208335  	105.581515 
2814.639993  	105.541417 
2816.071652  	105.508919 
2817.503310  	105.279112 
2818.934968  	105.021117 
2820.366626  	104.776847 
2821.798284  	104.336648 
2823.229943  	103.857317 
2824.661601  	103.354725 
2826.093259  	102.769491 
2827.524917  	102.146425 
2828.956575  	101.288264 
2830.388233  	100.302802 
2831.819892  	99.426409 
2833.251550  	98.486105 
2834.683208  	97.414947 
2836.114866  	96.244147 
2837.546524  	94.974817 
2838.978183  	93.721851 
2840.409841  	92.402243 
2841.841499  	90.900457 
2843.273157  	89.260366 
2844.704815  	87.391887 
2846.136474  	85.191436 
2847.568132  	82.842776 
2848.999790  	80.976901 
2850.431448  	80.287743 
2851.863106  	80.666658 
2853.294764  	81.399283 
2854.726423  	82.092504 
2856.158081  	82.618868 
2857.589739  	82.976747 
2859.021397  	83.333101 
2860.453055  	83.751447 
2861.884714  	84.209402 
2863.316372  	84.685571 
2864.748030  	85.197138 
2866.179688  	85.780857 
2867.611346  	86.347370 
2869.043005  	86.912347 
2870.474663  	87.577101 
2871.906321  	88.308574 
2873.337979  	89.174751 
2874.769637  	90.175004 
2876.201295  	91.171920 
2877.632954  	92.227290 
2879.064612  	93.289091 
2880.496270  	94.188213 
2881.927928  	94.956401 
2883.359586  	95.567949 
2884.791245  	95.975710 
2886.222903  	96.253742 
2887.654561  	96.415382 
2889.086219  	96.401107 
2890.517877  	96.224166 
2891.949535  	96.028997 
2893.381194  	95.846812 
2894.812852  	95.580365 
2896.244510  	95.301678 
2897.676168  	95.052067 
2899.107826  	94.759327 
2900.539485  	94.478975 
2901.971143  	94.193917 
2903.402801  	93.795987 
2904.834459  	93.306951 
2906.266117  	92.747572 
2907.697776  	92.099883 
2909.129434  	91.357582 
2910.561092  	90.447877 
2911.992750  	89.246868 
2913.424408  	87.711238 
2914.856066  	86.073516 
2916.287725  	84.820343 
2917.719383  	84.310764 
2919.151041  	84.501170 
2920.582699  	85.171859 
2922.014357  	86.119999 
2923.446016  	87.089024 
2924.877674  	87.846446 
2926.309332  	88.342866 
2927.740990  	88.622948 
2929.172648  	88.714514 
2930.604306  	88.653310 
2932.035965  	88.470792 
2933.467623  	88.281790 
2934.899281  	88.153841 
2936.330939  	87.986047 
2937.762597  	87.854070 
2939.194256  	87.890411 
2940.625914  	88.002296 
2942.057572  	88.176374 
2943.489230  	88.426985 
2944.920888  	88.696290 
2946.352547  	89.077226 
2947.784205  	89.552600 
2949.215863  	89.997055 
2950.647521  	90.451367 
2952.079179  	90.912493 
2953.510837  	91.408241 
2954.942496  	92.013563 
2956.374154  	92.632879 
2957.805812  	93.277942 
2959.237470  	94.049793 
2960.669128  	94.928699 
2962.100787  	95.875781 
2963.532445  	96.788246 
2964.964103  	97.684285 
2966.395761  	98.683361 
2967.827419  	99.686265 
2969.259078  	100.623076 
2970.690736  	101.503589 
2972.122394  	102.328561 
2973.554052  	103.185886 
2974.985710  	104.004311 
2976.417368  	104.711314 
2977.849027  	105.371144 
2979.280685  	105.949874 
2980.712343  	106.494398 
2982.144001  	106.989214 
2983.575659  	107.346729 
2985.007318  	107.705719 
2986.438976  	108.053719 
2987.870634  	108.332017 
2989.302292  	108.631631 
2990.733950  	108.849162 
2992.165608  	108.996125 
2993.597267  	109.167236 
2995.028925  	109.273502 
2996.460583  	109.353038 
2997.892241  	109.401268 
2999.323899  	109.406440 
3000.755558  	109.461770 
3002.187216  	109.463694 
3003.618874  	109.455076 
3005.050532  	109.511631 
3006.482190  	109.475282 
3007.913849  	109.461055 
3009.345507  	109.500568 
3010.777165  	109.447293 
3012.208823  	109.482944 
3013.640481  	109.586826 
3015.072139  	109.578020 
3016.503798  	109.557835 
3017.935456  	109.550401 
3019.367114  	109.552805 
3020.798772  	109.559211 
3022.230430  	109.501817 
3023.662089  	109.422390 
3025.093747  	109.259020 
3026.525405  	109.034285 
3027.957063  	108.871714 
3029.388721  	108.631802 
3030.820380  	108.353875 
3032.252038  	108.198303 
3033.683696  	108.079923 
3035.115354  	108.015368 
3036.547012  	107.985273 
3037.978670  	107.895232 
3039.410329  	107.808783 
3040.841987  	107.727568 
3042.273645  	107.718147 
3043.705303  	107.809387 
3045.136961  	107.840341 
3046.568620  	107.864439 
3048.000278  	107.927829 
3049.431936  	107.987848 
3050.863594  	108.134363 
3052.295252  	108.227337 
3053.726910  	108.196328 
3055.158569  	108.235538 
3056.590227  	108.296842 
3058.021885  	108.324782 
3059.453543  	108.363777 
3060.885201  	108.376168 
3062.316860  	108.422602 
3063.748518  	108.494218 
3065.180176  	108.568024 
3066.611834  	108.742615 
3068.043492  	108.954397 
3069.475151  	109.105311 
3070.906809  	109.194882 
3072.338467  	109.277911 
3073.770125  	109.434652 
3075.201783  	109.571957 
3076.633441  	109.668639 
3078.065100  	109.810245 
3079.496758  	109.893206 
3080.928416  	109.921523 
3082.360074  	109.985319 
3083.791732  	110.075227 
3085.223391  	110.196414 
3086.655049  	110.245566 
3088.086707  	110.246138 
3089.518365  	110.292102 
3090.950023  	110.267889 
3092.381682  	110.295134 
3093.813340  	110.404765 
3095.244998  	110.326159 
3096.676656  	110.220936 
3098.108314  	110.229976 
3099.539972  	110.192058 
3100.971631  	110.169878 
3102.403289  	110.113090 
3103.834947  	109.962775 
3105.266605  	109.889096 
3106.698263  	109.839538 
3108.129922  	109.720067 
3109.561580  	109.579948 
3110.993238  	109.453583 
3112.424896  	109.347111 
3113.856554  	109.195942 
3115.288212  	109.072870 
3116.719871  	109.047414 
3118.151529  	108.993411 
3119.583187  	108.935943 
3121.014845  	108.885038 
3122.446503  	108.810069 
3123.878162  	108.812216 
3125.309820  	108.814204 
3126.741478  	108.854766 
3128.173136  	109.033076 
3129.604794  	109.139437 
3131.036453  	109.258895 
3132.468111  	109.542650 
3133.899769  	109.796685 
3135.331427  	109.994296 
3136.763085  	110.119247 
3138.194743  	110.192109 
3139.626402  	110.367458 
3141.058060  	110.506007 
3142.489718  	110.593793 
3143.921376  	110.740997 
3145.353034  	110.847581 
3146.784693  	110.959303 
3148.216351  	111.007973 
3149.648009  	110.956909 
3151.079667  	111.013160 
3152.511325  	111.024035 
3153.942983  	110.972239 
3155.374642  	111.044631 
3156.806300  	111.035299 
3158.237958  	110.977613 
3159.669616  	110.981261 
3161.101274  	110.910433 
3162.532933  	110.876249 
3163.964591  	110.836581 
3165.396249  	110.715509 
3166.827907  	110.664026 
3168.259565  	110.583858 
3169.691224  	110.502524 
3171.122882  	110.444468 
3172.554540  	110.229878 
3173.986198  	110.090463 
3175.417856  	110.063174 
3176.849514  	109.894416 
3178.281173  	109.711886 
3179.712831  	109.509274 
3181.144489  	109.269977 
3182.576147  	109.137023 
3184.007805  	108.953700 
3185.439464  	108.734914 
3186.871122  	108.608828 
3188.302780  	108.489999 
3189.734438  	108.430656 
3191.166096  	108.390956 
3192.597755  	108.349581 
3194.029413  	108.449855 
3195.461071  	108.564724 
3196.892729  	108.675346 
3198.324387  	108.848121 
3199.756045  	108.877289 
3201.187704  	108.850578 
3202.619362  	108.955574 
3204.051020  	109.053731 
3205.482678  	109.054028 
3206.914336  	109.012398 
3208.345995  	109.025950 
3209.777653  	109.073886 
3211.209311  	109.049223 
3212.640969  	109.002890 
3214.072627  	108.959415 
3215.504285  	108.898641 
3216.935944  	108.784114 
3218.367602  	108.542259 
3219.799260  	108.353682 
3221.230918  	108.315537 
3222.662576  	108.261574 
3224.094235  	108.158078 
3225.525893  	107.969430 
3226.957551  	107.785573 
3228.389209  	107.705435 
3229.820867  	107.517596 
3231.252526  	107.321918 
3232.684184  	107.223351 
3234.115842  	106.994148 
3235.547500  	106.809580 
3236.979158  	106.685713 
3238.410816  	106.390787 
3239.842475  	106.200641 
3241.274133  	106.111824 
3242.705791  	105.881157 
3244.137449  	105.691566 
3245.569107  	105.530001 
3247.000766  	105.278432 
3248.432424  	105.061991 
3249.864082  	104.931160 
3251.295740  	104.841954 
3252.727398  	104.655718 
3254.159057  	104.392620 
3255.590715  	104.201955 
3257.022373  	103.967458 
3258.454031  	103.701673 
3259.885689  	103.500010 
3261.317347  	103.257264 
3262.749006  	103.017143 
3264.180664  	102.741253 
3265.612322  	102.396291 
3267.043980  	102.216144 
3268.475638  	102.077013 
3269.907297  	101.737009 
3271.338955  	101.345528 
3272.770613  	101.046848 
3274.202271  	100.815868 
3275.633929  	100.494504 
3277.065587  	100.057654 
3278.497246  	99.707150 
3279.928904  	99.419667 
3281.360562  	99.110661 
3282.792220  	98.743274 
3284.223878  	98.243286 
3285.655537  	97.767249 
3287.087195  	97.288815 
3288.518853  	96.701446 
3289.950511  	96.253293 
3291.382169  	95.814044 
3292.813828  	95.191339 
3294.245486  	94.667595 
3295.677144  	94.153173 
3297.108802  	93.563916 
3298.540460  	93.210562 
3299.972118  	92.990451 
3301.403777  	92.733452 
3302.835435  	92.578377 
3304.267093  	92.554534 
3305.698751  	92.622831 
3307.130409  	92.723277 
3308.562068  	92.840639 
3309.993726  	93.002989 
3311.425384  	93.112689 
3312.857042  	93.144275 
3314.288700  	93.138472 
3315.720359  	93.138642 
3317.152017  	93.182858 
3318.583675  	93.158534 
3320.015333  	93.102653 
3321.446991  	93.122363 
3322.878649  	93.124413 
3324.310308  	93.199288 
3325.741966  	93.363901 
3327.173624  	93.418914 
3328.605282  	93.491568 
3330.036940  	93.675150 
3331.468599  	93.858733 
3332.900257  	94.077260 
3334.331915  	94.319755 
3335.763573  	94.601361 
3337.195231  	94.992921 
3338.626889  	95.440668 
3340.058548  	95.946362 
3341.490206  	96.473128 
3342.921864  	96.947733 
3344.353522  	97.415259 
3345.785180  	97.904309 
3347.216839  	98.473042 
3348.648497  	99.082378 
3350.080155  	99.637141 
3351.511813  	100.236649 
3352.943471  	100.835326 
3354.375130  	101.383815 
3355.806788  	101.990509 
3357.238446  	102.482694 
3358.670104  	102.848282 
3360.101762  	103.352023 
3361.533420  	103.911172 
3362.965079  	104.371288 
3364.396737  	104.775584 
3365.828395  	105.208413 
3367.260053  	105.662269 
3368.691711  	105.970641 
3370.123370  	106.209065 
3371.555028  	106.541196 
3372.986686  	106.845420 
3374.418344  	107.097555 
3375.850002  	107.319493 
3377.281660  	107.489082 
3378.713319  	107.707203 
3380.144977  	107.919394 
3381.576635  	108.051833 
3383.008293  	108.152138 
3384.439951  	108.269448 
3385.871610  	108.497563 
3387.303268  	108.650811 
3388.734926  	108.645794 
3390.166584  	108.782627 
3391.598242  	108.919129 
3393.029901  	108.913074 
3394.461559  	109.033497 
3395.893217  	109.159814 
3397.324875  	109.221592 
3398.756533  	109.381271 
3400.188191  	109.507479 
3401.619850  	109.590569 
3403.051508  	109.673241 
3404.483166  	109.713563 
3405.914824  	109.810525 
3407.346482  	109.899929 
3408.778141  	109.967585 
3410.209799  	110.108499 
3411.641457  	110.199206 
3413.073115  	110.264579 
3414.504773  	110.363429 
3415.936432  	110.414622 
3417.368090  	110.474477 
3418.799748  	110.490899 
3420.231406  	110.434782 
3421.663064  	110.442576 
3423.094722  	110.462872 
3424.526381  	110.496261 
3425.958039  	110.623141 
3427.389697  	110.761467 
3428.821355  	110.832157 
3430.253013  	110.839744 
3431.684672  	110.901038 
3433.116330  	110.980362 
3434.547988  	110.922505 
3435.979646  	110.889919 
3437.411304  	110.918694 
3438.842962  	110.896350 
3440.274621  	110.944473 
3441.706279  	110.961366 
3443.137937  	110.915913 
3444.569595  	111.013219 
3446.001253  	111.106210 
3447.432912  	111.159681 
3448.864570  	111.269969 
3450.296228  	111.325508 
3451.727886  	111.370842 
3453.159544  	111.373372 
3454.591203  	111.357992 
3456.022861  	111.466754 
3457.454519  	111.460679 
3458.886177  	111.370619 
3460.317835  	111.458495 
3461.749493  	111.522036 
3463.181152  	111.519383 
3464.612810  	111.550916 
3466.044468  	111.559967 
3467.476126  	111.619673 
3468.907784  	111.641301 
3470.339443  	111.601727 
3471.771101  	111.614556 
3473.202759  	111.550538 
3474.634417  	111.494173 
3476.066075  	111.559654 
3477.497734  	111.619985 
3478.929392  	111.670260 
3480.361050  	111.585837 
3481.792708  	111.450844 
3483.224366  	111.536890 
3484.656024  	111.565237 
3486.087683  	111.512127 
3487.519341  	111.584454 
3488.950999  	111.571777 
3490.382657  	111.564931 
3491.814315  	111.664954 
3493.245974  	111.676186 
3494.677632  	111.712820 
3496.109290  	111.775600 
3497.540948  	111.746914 
3498.972606  	111.704284 
3500.404264  	111.602895 
3501.835923  	111.538635 
3503.267581  	111.584909 
3504.699239  	111.567347 
3506.130897  	111.593498 
3507.562555  	111.668985 
3508.994214  	111.630176 
3510.425872  	111.598011 
3511.857530  	111.643616 
3513.289188  	111.692349 
3514.720846  	111.731199 
3516.152505  	111.732898 
3517.584163  	111.724033 
3519.015821  	111.732547 
3520.447479  	111.740560 
3521.879137  	111.684277 
3523.310795  	111.633255 
3524.742454  	111.758976 
3526.174112  	111.771971 
3527.605770  	111.607597 
3529.037428  	111.715865 
3530.469086  	111.914191 
3531.900745  	111.950237 
3533.332403  	112.004647 
3534.764061  	111.968230 
3536.195719  	111.921750 
3537.627377  	112.003382 
3539.059035  	111.996779 
3540.490694  	112.030625 
3541.922352  	112.073522 
3543.354010  	111.933237 
3544.785668  	111.931515 
3546.217326  	112.069132 
3547.648985  	112.101782 
3549.080643  	112.185151 
3550.512301  	112.196919 
3551.943959  	112.116105 
3553.375617  	112.193053 
3554.807276  	112.324209 
3556.238934  	112.331214 
3557.670592  	112.259637 
3559.102250  	112.272656 
3560.533908  	112.386465 
3561.965566  	112.427897 
3563.397225  	112.432584 
3564.828883  	112.330631 
3566.260541  	112.074427 
3567.692199  	112.158697 
3569.123857  	112.495490 
3570.555516  	112.581720 
3571.987174  	112.610377 
3573.418832  	112.555120 
3574.850490  	112.451475 
3576.282148  	112.450542 
3577.713807  	112.531935 
3579.145465  	112.745516 
3580.577123  	112.821942 
3582.008781  	112.638881 
3583.440439  	112.608603 
3584.872097  	112.559824 
3586.303756  	112.325398 
3587.735414  	112.424567 
3589.167072  	112.728789 
3590.598730  	112.755318 
3592.030388  	112.762674 
3593.462047  	112.689481 
3594.893705  	112.510970 
3596.325363  	112.541609 
3597.757021  	112.715330 
3599.188679  	112.762531 
3600.620337  	112.774729 
3602.051996  	112.870301 
3603.483654  	112.862706 
3604.915312  	112.831064 
3606.346970  	112.880963 
3607.778628  	112.822509 
3609.210287  	112.917662 
3610.641945  	113.153623 
3612.073603  	112.977674 
3613.505261  	112.855673 
3614.936919  	113.137370 
3616.368578  	113.095870 
3617.800236  	112.756573 
3619.231894  	112.630721 
3620.663552  	112.986075 
3622.095210  	113.277040 
3623.526868  	113.152453 
3624.958527  	113.055115 
3626.390185  	113.046205 
3627.821843  	112.697238 
3629.253501  	112.531233 
3630.685159  	113.066021 
3632.116818  	113.102052 
3633.548476  	113.126488 
3634.980134  	113.299924 
3636.411792  	113.315596 
3637.843450  	113.374478 
3639.275109  	113.408996 
3640.706767  	113.317444 
3642.138425  	113.342108 
3643.570083  	113.416690 
3645.001741  	113.349047 
3646.433399  	113.208189 
3647.865058  	113.125109 
3649.296716  	112.973705 
3650.728374  	112.924058 
3652.160032  	113.568680 
3653.591690  	113.817831 
3655.023349  	113.481992 
3656.455007  	113.374527 
3657.886665  	113.694906 
3659.318323  	113.720530 
3660.749981  	113.734917 
3662.181639  	113.805761 
3663.613298  	113.810079 
3665.044956  	113.836337 
3666.476614  	113.756630 
3667.908272  	113.546811 
3669.339930  	113.296524 
3670.771589  	113.279959 
3672.203247  	113.552713 
3673.634905  	113.423340 
3675.066563  	113.207865 
3676.498221  	113.782661 
3677.929880  	113.929777 
3679.361538  	113.806745 
3680.793196  	113.942635 
3682.224854  	113.963175 
3683.656512  	113.930976 
3685.088170  	113.870474 
3686.519829  	113.574374 
3687.951487  	113.413715 
3689.383145  	113.664290 
3690.814803  	113.758731 
3692.246461  	113.811342 
3693.678120  	113.964169 
3695.109778  	113.936047 
3696.541436  	113.822566 
3697.973094  	113.825391 
3699.404752  	113.767579 
3700.836411  	113.573759 
3702.268069  	113.626746 
3703.699727  	113.832269 
3705.131385  	113.787125 
3706.563043  	113.726409 
3707.994701  	113.715823 
3709.426360  	113.633548 
3710.858018  	113.559546 
3712.289676  	113.610307 
3713.721334  	113.951005 
3715.152992  	114.188765 
3716.584651  	114.107107 
3718.016309  	114.083781 
3719.447967  	114.060493 
3720.879625  	113.751848 
3722.311283  	113.601805 
3723.742941  	113.702623 
3725.174600  	113.630614 
3726.606258  	113.600353 
3728.037916  	113.752690 
3729.469574  	113.782970 
3730.901232  	113.726170 
3732.332891  	113.688899 
3733.764549  	113.473137 
3735.196207  	113.201378 
3736.627865  	113.726874 
3738.059523  	114.260223 
3739.491182  	114.098650 
3740.922840  	114.070984 
3742.354498  	114.001882 
3743.786156  	113.582437 
3745.217814  	113.906679 
3746.649472  	114.306161 
3748.081131  	113.919208 
3749.512789  	113.751258 
3750.944447  	113.800240 
3752.376105  	113.829593 
3753.807763  	114.230278 
3755.239422  	114.290066 
3756.671080  	114.197774 
3758.102738  	114.249605 
3759.534396  	114.145706 
3760.966054  	114.197974 
3762.397712  	114.370765 
3763.829371  	114.224276 
3765.261029  	114.114562 
3766.692687  	114.204851 
3768.124345  	114.144847 
3769.556003  	114.067052 
3770.987662  	114.208950 
3772.419320  	114.391668 
3773.850978  	114.370195 
3775.282636  	114.249905 
3776.714294  	114.221273 
3778.145953  	114.105216 
3779.577611  	113.972555 
3781.009269  	114.165555 
3782.440927  	114.214802 
3783.872585  	113.995083 
3785.304243  	113.907196 
3786.735902  	114.057243 
3788.167560  	114.185386 
3789.599218  	114.152722 
3791.030876  	114.105636 
3792.462534  	114.238128 
3793.894193  	114.315528 
3795.325851  	114.181605 
3796.757509  	114.017966 
3798.189167  	113.921826 
3799.620825  	113.744488 
3801.052484  	113.525081 
3802.484142  	113.893257 
3803.915800  	114.270084 
3805.347458  	113.994376 
3806.779116  	113.805827 
3808.210774  	114.207638 
3809.642433  	114.242136 
3811.074091  	114.063017 
3812.505749  	114.071297 
3813.937407  	113.972454 
3815.369065  	113.762270 
3816.800724  	113.880368 
3818.232382  	113.916293 
3819.664040  	113.573260 
3821.095698  	113.463329 
3822.527356  	114.111650 
3823.959014  	114.180896 
3825.390673  	113.937457 
3826.822331  	113.989495 
3828.253989  	114.100034 
3829.685647  	113.982298 
3831.117305  	113.928670 
3832.548964  	113.988598 
3833.980622  	114.010683 
3835.412280  	113.934638 
3836.843938  	113.773250 
3838.275596  	113.667074 
3839.707255  	113.628100 
3841.138913  	113.674297 
3842.570571  	113.837119 
3844.002229  	114.016361 
3845.433887  	114.177863 
3846.865545  	114.161962 
3848.297204  	114.014501 
3849.728862  	114.015222 
3851.160520  	113.883279 
3852.592178  	113.312626 
3854.023836  	113.269112 
3855.455495  	113.953724 
3856.887153  	114.028139 
3858.318811  	114.103354 
3859.750469  	114.074133 
3861.182127  	113.881020 
3862.613786  	113.792746 
3864.045444  	113.686963 
3865.477102  	113.759594 
3866.908760  	114.028197 
3868.340418  	113.791588 
3869.772076  	113.520856 
3871.203735  	114.061731 
3872.635393  	114.146537 
3874.067051  	113.921708 
3875.498709  	114.123657 
3876.930367  	114.202552 
3878.362026  	113.968707 
3879.793684  	113.815745 
3881.225342  	113.924455 
3882.657000  	114.049068 
3884.088658  	113.846027 
3885.520316  	113.539983 
3886.951975  	113.868124 
3888.383633  	114.101814 
3889.815291  	113.836958 
3891.246949  	113.761913 
3892.678607  	114.029908 
3894.110266  	114.078601 
3895.541924  	114.063285 
3896.973582  	113.939016 
3898.405240  	113.740471 
3899.836898  	113.777929 
3901.268557  	113.752905 
3902.700215  	113.583776 
3904.131873  	113.683529 
3905.563531  	113.847850 
3906.995189  	113.949358 
3908.426847  	114.101685 
3909.858506  	114.110291 
3911.290164  	114.050356 
3912.721822  	114.157554 
3914.153480  	114.210069 
3915.585138  	113.996390 
3917.016797  	113.732592 
3918.448455  	113.702846 
3919.880113  	113.763179 
3921.311771  	113.803887 
3922.743429  	113.832330 
3924.175088  	113.809688 
3925.606746  	113.854723 
3927.038404  	113.901758 
3928.470062  	113.794444 
3929.901720  	113.735946 
3931.333378  	113.790935 
3932.765037  	113.844527 
3934.196695  	113.969528 
3935.628353  	114.007806 
3937.060011  	113.934967 
3938.491669  	113.960054 
3939.923328  	113.960425 
3941.354986  	113.822036 
3942.786644  	113.720352 
3944.218302  	113.765603 
3945.649960  	113.865379 
3947.081618  	113.900109 
3948.513277  	113.931614 
3949.944935  	114.013333 
3951.376593  	113.983426 
3952.808251  	113.928253 
3954.239909  	113.946590 
3955.671568  	113.900856 
3957.103226  	113.887688 
3958.534884  	113.953023 
3959.966542  	113.926579 
3961.398200  	113.883037 
3962.829859  	113.910020 
3964.261517  	113.943960 
3965.693175  	113.926152 
3967.124833  	113.856725 
3968.556491  	113.856543 
3969.988149  	113.883865 
3971.419808  	113.851403 
3972.851466  	113.862498 
3974.283124  	113.819244 
3975.714782  	113.702972 
3977.146440  	113.720533 
3978.578099  	113.798306 
3980.009757  	113.863144 
3981.441415  	113.881365 
3982.873073  	113.763617 
3984.304731  	113.734180 
3985.736389  	113.845627 
3987.168048  	113.850874 
3988.599706  	113.796030 
3990.031364  	113.800812 
3991.463022  	113.849490 
3992.894680  	113.875044 
3994.326339  	113.840441 
3995.757997  	113.866491 
3997.189655  	113.877933 
3998.621313  	113.752680 
4000.052971  	113.724305 