##TITLE=No Description
##DATA TYPE=INFRARED SPECTRUM
##XUNITS=1/CM
##YUNITS=Abs
399.432634  	0.354718 
400.864292  	0.381651 
402.295950  	0.381898 
403.727608  	0.409463 
405.159267  	0.434744 
406.590925  	0.413879 
408.022583  	0.384731 
409.454241  	0.397647 
410.885899  	0.436016 
412.317558  	0.423168 
413.749216  	0.382204 
415.180874  	0.402547 
416.612532  	0.434080 
418.044190  	0.406916 
419.475848  	0.367288 
420.907507  	0.358075 
422.339165  	0.364538 
423.770823  	0.394803 
425.202481  	0.402279 
426.634139  	0.394872 
428.065798  	0.400468 
429.497456  	0.385413 
430.929114  	0.363803 
432.360772  	0.372093 
433.792430  	0.381203 
435.224089  	0.372134 
436.655747  	0.373942 
438.087405  	0.392138 
439.519063  	0.396624 
440.950721  	0.389284 
442.382379  	0.394046 
443.814038  	0.398699 
445.245696  	0.388006 
446.677354  	0.383079 
448.109012  	0.390572 
449.540670  	0.396690 
450.972329  	0.399223 
452.403987  	0.392199 
453.835645  	0.384348 
455.267303  	0.392201 
456.698961  	0.402495 
458.130619  	0.390485 
459.562278  	0.374159 
460.993936  	0.369370 
462.425594  	0.368242 
463.857252  	0.367576 
465.288910  	0.367011 
466.720569  	0.372833 
468.152227  	0.384194 
469.583885  	0.388607 
471.015543  	0.389576 
472.447201  	0.389612 
473.878860  	0.384355 
475.310518  	0.382613 
476.742176  	0.379433 
478.173834  	0.370274 
479.605492  	0.370877 
481.037150  	0.378256 
482.468809  	0.379629 
483.900467  	0.379205 
485.332125  	0.379209 
486.763783  	0.381483 
488.195441  	0.388293 
489.627100  	0.389115 
491.058758  	0.388328 
492.490416  	0.392142 
493.922074  	0.387327 
495.353732  	0.380758 
496.785391  	0.380382 
498.217049  	0.378462 
499.648707  	0.378480 
501.080365  	0.377382 
502.512023  	0.372477 
503.943681  	0.378564 
505.375340  	0.383930 
506.806998  	0.377903 
508.238656  	0.376953 
509.670314  	0.376627 
511.101972  	0.369479 
512.533631  	0.370793 
513.965289  	0.377849 
515.396947  	0.377893 
516.828605  	0.376106 
518.260263  	0.377364 
519.691921  	0.378632 
521.123580  	0.376978 
522.555238  	0.374221 
523.986896  	0.373277 
525.418554  	0.372392 
526.850212  	0.372036 
528.281871  	0.373717 
529.713529  	0.373319 
531.145187  	0.373310 
532.576845  	0.377390 
534.008503  	0.379850 
535.440162  	0.379558 
536.871820  	0.380754 
538.303478  	0.382390 
539.735136  	0.382941 
541.166794  	0.381690 
542.598452  	0.378567 
544.030111  	0.376710 
545.461769  	0.375762 
546.893427  	0.373784 
548.325085  	0.373989 
549.756743  	0.374531 
551.188402  	0.369930 
552.620060  	0.365575 
554.051718  	0.364793 
555.483376  	0.359663 
556.915034  	0.350945 
558.346692  	0.346462 
559.778351  	0.343995 
561.210009  	0.340043 
562.641667  	0.336547 
564.073325  	0.332692 
565.504983  	0.326777 
566.936642  	0.321622 
568.368300  	0.320637 
569.799958  	0.323360 
571.231616  	0.327593 
572.663274  	0.331455 
574.094933  	0.332850 
575.526591  	0.332609 
576.958249  	0.333778 
578.389907  	0.334990 
579.821565  	0.334652 
581.253223  	0.334274 
582.684882  	0.333670 
584.116540  	0.333133 
585.548198  	0.333714 
586.979856  	0.333860 
588.411514  	0.333906 
589.843173  	0.334552 
591.274831  	0.334302 
592.706489  	0.333991 
594.138147  	0.333717 
595.569805  	0.332994 
597.001464  	0.334174 
598.433122  	0.336066 
599.864780  	0.335983 
601.296438  	0.334705 
602.728096  	0.332535 
604.159754  	0.330693 
605.591413  	0.331083 
607.023071  	0.332198 
608.454729  	0.332664 
609.886387  	0.332475 
611.318045  	0.331931 
612.749704  	0.331974 
614.181362  	0.331946 
615.613020  	0.331393 
617.044678  	0.331186 
618.476336  	0.331766 
619.907994  	0.333213 
621.339653  	0.333289 
622.771311  	0.331083 
624.202969  	0.330587 
625.634627  	0.332238 
627.066285  	0.332238 
628.497944  	0.330428 
629.929602  	0.329124 
631.361260  	0.329459 
632.792918  	0.329559 
634.224576  	0.327760 
635.656235  	0.326281 
637.087893  	0.325896 
638.519551  	0.325775 
639.951209  	0.326214 
641.382867  	0.326082 
642.814525  	0.326559 
644.246184  	0.328719 
645.677842  	0.328567 
647.109500  	0.326781 
648.541158  	0.326516 
649.972816  	0.325545 
651.404475  	0.324735 
652.836133  	0.326609 
654.267791  	0.327597 
655.699449  	0.325907 
657.131107  	0.324710 
658.562766  	0.325245 
659.994424  	0.325457 
661.426082  	0.324761 
662.857740  	0.324322 
664.289398  	0.323753 
665.721056  	0.323869 
667.152715  	0.326366 
668.584373  	0.327329 
670.016031  	0.325213 
671.447689  	0.325677 
672.879347  	0.326168 
674.311006  	0.325668 
675.742664  	0.324938 
677.174322  	0.323240 
678.605980  	0.322564 
680.037638  	0.323113 
681.469296  	0.323273 
682.900955  	0.324361 
684.332613  	0.325095 
685.764271  	0.323945 
687.195929  	0.323248 
688.627587  	0.323209 
690.059246  	0.323464 
691.490904  	0.324162 
692.922562  	0.323846 
694.354220  	0.323166 
695.785878  	0.323418 
697.217537  	0.323924 
698.649195  	0.324167 
700.080853  	0.323772 
701.512511  	0.323399 
702.944169  	0.323815 
704.375827  	0.323992 
705.807486  	0.323438 
707.239144  	0.322375 
708.670802  	0.321633 
710.102460  	0.322332 
711.534118  	0.322945 
712.965777  	0.322395 
714.397435  	0.322290 
715.829093  	0.323687 
717.260751  	0.326772 
718.692409  	0.330348 
720.124067  	0.332998 
721.555726  	0.335504 
722.987384  	0.337453 
724.419042  	0.337246 
725.850700  	0.334179 
727.282358  	0.326686 
728.714017  	0.315427 
730.145675  	0.302521 
731.577333  	0.287875 
733.008991  	0.272865 
734.440649  	0.260212 
735.872308  	0.252084 
737.303966  	0.250715 
738.735624  	0.255208 
740.167282  	0.261347 
741.598940  	0.267046 
743.030598  	0.272370 
744.462257  	0.276803 
745.893915  	0.279908 
747.325573  	0.281884 
748.757231  	0.283584 
750.188889  	0.285185 
751.620548  	0.285980 
753.052206  	0.286591 
754.483864  	0.287678 
755.915522  	0.288493 
757.347180  	0.289054 
758.778839  	0.289584 
760.210497  	0.289237 
761.642155  	0.288146 
763.073813  	0.287381 
764.505471  	0.287036 
765.937129  	0.286652 
767.368788  	0.285902 
768.800446  	0.284834 
770.232104  	0.283593 
771.663762  	0.281951 
773.095420  	0.280576 
774.527079  	0.279884 
775.958737  	0.278604 
777.390395  	0.277335 
778.822053  	0.277771 
780.253711  	0.278865 
781.685369  	0.279574 
783.117028  	0.280103 
784.548686  	0.280960 
785.980344  	0.282891 
787.412002  	0.284159 
788.843660  	0.283589 
790.275319  	0.283755 
791.706977  	0.284852 
793.138635  	0.285285 
794.570293  	0.285830 
796.001951  	0.286368 
797.433610  	0.286800 
798.865268  	0.287933 
800.296926  	0.288899 
801.728584  	0.289899 
803.160242  	0.291727 
804.591900  	0.293122 
806.023559  	0.293319 
807.455217  	0.293046 
808.886875  	0.293554 
810.318533  	0.294249 
811.750191  	0.293109 
813.181850  	0.291568 
814.613508  	0.290775 
816.045166  	0.289311 
817.476824  	0.288482 
818.908482  	0.288204 
820.340141  	0.286454 
821.771799  	0.285599 
823.203457  	0.286875 
824.635115  	0.287845 
826.066773  	0.287861 
827.498431  	0.286530 
828.930090  	0.282982 
830.361748  	0.278249 
831.793406  	0.273697 
833.225064  	0.269435 
834.656722  	0.265175 
836.088381  	0.261346 
837.520039  	0.258045 
838.951697  	0.255608 
840.383355  	0.255018 
841.815013  	0.254846 
843.246671  	0.253646 
844.678330  	0.252681 
846.109988  	0.251960 
847.541646  	0.250875 
848.973304  	0.249994 
850.404962  	0.249170 
851.836621  	0.248883 
853.268279  	0.249506 
854.699937  	0.250172 
856.131595  	0.251150 
857.563253  	0.252440 
858.994912  	0.253610 
860.426570  	0.255400 
861.858228  	0.257194 
863.289886  	0.258035 
864.721544  	0.258922 
866.153202  	0.260610 
867.584861  	0.262719 
869.016519  	0.264296 
870.448177  	0.264993 
871.879835  	0.264993 
873.311493  	0.263634 
874.743152  	0.261702 
876.174810  	0.260597 
877.606468  	0.259770 
879.038126  	0.259284 
880.469784  	0.259209 
881.901443  	0.259065 
883.333101  	0.259340 
884.764759  	0.259077 
886.196417  	0.257567 
887.628075  	0.255911 
889.059733  	0.253827 
890.491392  	0.251422 
891.923050  	0.249367 
893.354708  	0.247666 
894.786366  	0.247580 
896.218024  	0.248701 
897.649683  	0.249248 
899.081341  	0.250058 
900.512999  	0.251507 
901.944657  	0.252738 
903.376315  	0.253736 
904.807973  	0.254303 
906.239632  	0.254911 
907.671290  	0.255833 
909.102948  	0.256492 
910.534606  	0.257261 
911.966264  	0.257930 
913.397923  	0.258254 
914.829581  	0.258627 
916.261239  	0.258191 
917.692897  	0.257503 
919.124555  	0.257946 
920.556214  	0.258516 
921.987872  	0.258659 
923.419530  	0.258724 
924.851188  	0.258685 
926.282846  	0.258915 
927.714504  	0.259208 
929.146163  	0.259461 
930.577821  	0.259848 
932.009479  	0.259821 
933.441137  	0.259568 
934.872795  	0.259077 
936.304454  	0.258259 
937.736112  	0.258210 
939.167770  	0.258271 
940.599428  	0.257318 
942.031086  	0.256602 
943.462744  	0.256678 
944.894403  	0.256654 
946.326061  	0.256030 
947.757719  	0.255198 
949.189377  	0.255179 
950.621035  	0.255809 
952.052694  	0.256187 
953.484352  	0.256406 
954.916010  	0.256643 
956.347668  	0.256874 
957.779326  	0.256975 
959.210985  	0.256786 
960.642643  	0.256601 
962.074301  	0.256526 
963.505959  	0.256601 
964.937617  	0.256629 
966.369275  	0.256334 
967.800934  	0.256491 
969.232592  	0.256923 
970.664250  	0.256816 
972.095908  	0.256986 
973.527566  	0.257355 
974.959225  	0.257428 
976.390883  	0.257964 
977.822541  	0.258729 
979.254199  	0.259460 
980.685857  	0.260093 
982.117516  	0.260076 
983.549174  	0.260314 
984.980832  	0.261006 
986.412490  	0.261534 
987.844148  	0.262508 
989.275806  	0.263240 
990.707465  	0.263409 
992.139123  	0.263978 
993.570781  	0.264198 
995.002439  	0.264270 
996.434097  	0.265031 
997.865756  	0.265858 
999.297414  	0.267244 
1000.729072  	0.269149 
1002.160730  	0.270591 
1003.592388  	0.271546 
1005.024046  	0.271239 
1006.455705  	0.270206 
1007.887363  	0.270060 
1009.319021  	0.270736 
1010.750679  	0.272978 
1012.182337  	0.275661 
1013.613996  	0.273095 
1015.045654  	0.262005 
1016.477312  	0.245773 
1017.908970  	0.230895 
1019.340628  	0.220579 
1020.772287  	0.214849 
1022.203945  	0.213811 
1023.635603  	0.215949 
1025.067261  	0.219028 
1026.498919  	0.222896 
1027.930577  	0.226607 
1029.362236  	0.229039 
1030.793894  	0.231290 
1032.225552  	0.233211 
1033.657210  	0.234525 
1035.088868  	0.236281 
1036.520527  	0.237946 
1037.952185  	0.239137 
1039.383843  	0.240485 
1040.815501  	0.241803 
1042.247159  	0.242938 
1043.678818  	0.243938 
1045.110476  	0.244889 
1046.542134  	0.245786 
1047.973792  	0.246579 
1049.405450  	0.247784 
1050.837108  	0.249006 
1052.268767  	0.249716 
1053.700425  	0.250472 
1055.132083  	0.251029 
1056.563741  	0.251645 
1057.995399  	0.252956 
1059.427058  	0.254097 
1060.858716  	0.254975 
1062.290374  	0.255750 
1063.722032  	0.256244 
1065.153690  	0.257457 
1066.585348  	0.259183 
1068.017007  	0.260495 
1069.448665  	0.261664 
1070.880323  	0.262954 
1072.311981  	0.264671 
1073.743639  	0.266432 
1075.175298  	0.268317 
1076.606956  	0.270817 
1078.038614  	0.271143 
1079.470272  	0.267695 
1080.901930  	0.262265 
1082.333589  	0.255895 
1083.765247  	0.251005 
1085.196905  	0.249095 
1086.628563  	0.249047 
1088.060221  	0.251166 
1089.491879  	0.254584 
1090.923538  	0.257174 
1092.355196  	0.259592 
1093.786854  	0.261790 
1095.218512  	0.262925 
1096.650170  	0.263306 
1098.081829  	0.262636 
1099.513487  	0.261071 
1100.945145  	0.258290 
1102.376803  	0.254058 
1103.808461  	0.249944 
1105.240120  	0.246449 
1106.671778  	0.243759 
1108.103436  	0.242417 
1109.535094  	0.241769 
1110.966752  	0.241815 
1112.398410  	0.242677 
1113.830069  	0.243442 
1115.261727  	0.243680 
1116.693385  	0.242915 
1118.125043  	0.241554 
1119.556701  	0.240510 
1120.988360  	0.239174 
1122.420018  	0.237792 
1123.851676  	0.237126 
1125.283334  	0.236939 
1126.714992  	0.237411 
1128.146650  	0.238040 
1129.578309  	0.238563 
1131.009967  	0.240154 
1132.441625  	0.242406 
1133.873283  	0.244519 
1135.304941  	0.247018 
1136.736600  	0.249644 
1138.168258  	0.252122 
1139.599916  	0.254568 
1141.031574  	0.256766 
1142.463232  	0.258801 
1143.894891  	0.260865 
1145.326549  	0.263396 
1146.758207  	0.266080 
1148.189865  	0.268219 
1149.621523  	0.270646 
1151.053181  	0.273494 
1152.484840  	0.276179 
1153.916498  	0.278864 
1155.348156  	0.280915 
1156.779814  	0.282161 
1158.211472  	0.282063 
1159.643131  	0.279078 
1161.074789  	0.273458 
1162.506447  	0.264942 
1163.938105  	0.253765 
1165.369763  	0.241833 
1166.801421  	0.230229 
1168.233080  	0.221831 
1169.664738  	0.219042 
1171.096396  	0.220997 
1172.528054  	0.226548 
1173.959712  	0.234199 
1175.391371  	0.241597 
1176.823029  	0.247869 
1178.254687  	0.252748 
1179.686345  	0.256939 
1181.118003  	0.261568 
1182.549662  	0.265600 
1183.981320  	0.269172 
1185.412978  	0.272209 
1186.844636  	0.272574 
1188.276294  	0.270648 
1189.707952  	0.266383 
1191.139611  	0.259252 
1192.571269  	0.251362 
1194.002927  	0.243127 
1195.434585  	0.234021 
1196.866243  	0.224653 
1198.297902  	0.215720 
1199.729560  	0.208039 
1201.161218  	0.201673 
1202.592876  	0.197259 
1204.024534  	0.196198 
1205.456193  	0.198727 
1206.887851  	0.204842 
1208.319509  	0.213763 
1209.751167  	0.222681 
1211.182825  	0.230303 
1212.614483  	0.236657 
1214.046142  	0.240722 
1215.477800  	0.243013 
1216.909458  	0.243906 
1218.341116  	0.243152 
1219.772774  	0.241466 
1221.204433  	0.238761 
1222.636091  	0.235506 
1224.067749  	0.232241 
1225.499407  	0.228436 
1226.931065  	0.224529 
1228.362723  	0.220728 
1229.794382  	0.216886 
1231.226040  	0.213294 
1232.657698  	0.209750 
1234.089356  	0.206645 
1235.521014  	0.204154 
1236.952673  	0.201507 
1238.384331  	0.198846 
1239.815989  	0.196438 
1241.247647  	0.194204 
1242.679305  	0.192042 
1244.110964  	0.189205 
1245.542622  	0.185698 
1246.974280  	0.182070 
1248.405938  	0.177986 
1249.837596  	0.173234 
1251.269254  	0.168027 
1252.700913  	0.162874 
1254.132571  	0.158105 
1255.564229  	0.153551 
1256.995887  	0.149677 
1258.427545  	0.147237 
1259.859204  	0.146400 
1261.290862  	0.146820 
1262.722520  	0.147958 
1264.154178  	0.149257 
1265.585836  	0.150014 
1267.017495  	0.149602 
1268.449153  	0.147867 
1269.880811  	0.145233 
1271.312469  	0.142195 
1272.744127  	0.138745 
1274.175785  	0.135022 
1275.607444  	0.131586 
1277.039102  	0.128306 
1278.470760  	0.125184 
1279.902418  	0.122608 
1281.334076  	0.120176 
1282.765735  	0.117845 
1284.197393  	0.115839 
1285.629051  	0.113889 
1287.060709  	0.112095 
1288.492367  	0.110460 
1289.924025  	0.108987 
1291.355684  	0.107709 
1292.787342  	0.106214 
1294.219000  	0.104809 
1295.650658  	0.103773 
1297.082316  	0.102840 
1298.513975  	0.102236 
1299.945633  	0.102003 
1301.377291  	0.102459 
1302.808949  	0.103664 
1304.240607  	0.104680 
1305.672266  	0.105685 
1307.103924  	0.106938 
1308.535582  	0.107833 
1309.967240  	0.108442 
1311.398898  	0.108707 
1312.830556  	0.108698 
1314.262215  	0.109008 
1315.693873  	0.109493 
1317.125531  	0.110346 
1318.557189  	0.111488 
1319.988847  	0.112279 
1321.420506  	0.113250 
1322.852164  	0.114312 
1324.283822  	0.115041 
1325.715480  	0.115785 
1327.147138  	0.116195 
1328.578796  	0.116521 
1330.010455  	0.117388 
1331.442113  	0.118184 
1332.873771  	0.118982 
1334.305429  	0.119983 
1335.737087  	0.120842 
1337.168746  	0.121948 
1338.600404  	0.123276 
1340.032062  	0.124449 
1341.463720  	0.125421 
1342.895378  	0.126184 
1344.327037  	0.127091 
1345.758695  	0.128068 
1347.190353  	0.129012 
1348.622011  	0.130259 
1350.053669  	0.131191 
1351.485327  	0.131692 
1352.916986  	0.132532 
1354.348644  	0.133605 
1355.780302  	0.134912 
1357.211960  	0.136440 
1358.643618  	0.138066 
1360.075277  	0.140278 
1361.506935  	0.142523 
1362.938593  	0.143152 
1364.370251  	0.141595 
1365.801909  	0.139145 
1367.233568  	0.136675 
1368.665226  	0.135206 
1370.096884  	0.135083 
1371.528542  	0.135854 
1372.960200  	0.136892 
1374.391858  	0.137719 
1375.823517  	0.138784 
1377.255175  	0.139918 
1378.686833  	0.140954 
1380.118491  	0.142152 
1381.550149  	0.143258 
1382.981808  	0.144222 
1384.413466  	0.144961 
1385.845124  	0.145006 
1387.276782  	0.143764 
1388.708440  	0.142034 
1390.140098  	0.141025 
1391.571757  	0.140652 
1393.003415  	0.140652 
1394.435073  	0.140863 
1395.866731  	0.141637 
1397.298389  	0.142682 
1398.730048  	0.143782 
1400.161706  	0.145016 
1401.593364  	0.146528 
1403.025022  	0.148440 
1404.456680  	0.150151 
1405.888339  	0.151233 
1407.319997  	0.151322 
1408.751655  	0.149259 
1410.183313  	0.145166 
1411.614971  	0.140374 
1413.046629  	0.136498 
1414.478288  	0.134248 
1415.909946  	0.133303 
1417.341604  	0.133247 
1418.773262  	0.133610 
1420.204920  	0.134172 
1421.636579  	0.135311 
1423.068237  	0.136414 
1424.499895  	0.137086 
1425.931553  	0.138020 
1427.363211  	0.139087 
1428.794870  	0.140005 
1430.226528  	0.141036 
1431.658186  	0.141815 
1433.089844  	0.142578 
1434.521502  	0.143522 
1435.953160  	0.143809 
1437.384819  	0.143795 
1438.816477  	0.144699 
1440.248135  	0.145489 
1441.679793  	0.146228 
1443.111451  	0.146934 
1444.543110  	0.147450 
1445.974768  	0.148110 
1447.406426  	0.148634 
1448.838084  	0.148847 
1450.269742  	0.149166 
1451.701400  	0.148992 
1453.133059  	0.148495 
1454.564717  	0.148840 
1455.996375  	0.149533 
1457.428033  	0.150063 
1458.859691  	0.150523 
1460.291350  	0.150494 
1461.723008  	0.150340 
1463.154666  	0.150347 
1464.586324  	0.149913 
1466.017982  	0.149265 
1467.449641  	0.149033 
1468.881299  	0.148797 
1470.312957  	0.148801 
1471.744615  	0.148915 
1473.176273  	0.148589 
1474.607931  	0.148788 
1476.039590  	0.149252 
1477.471248  	0.149353 
1478.902906  	0.149853 
1480.334564  	0.150986 
1481.766222  	0.152138 
1483.197881  	0.153358 
1484.629539  	0.154993 
1486.061197  	0.156749 
1487.492855  	0.158850 
1488.924513  	0.161113 
1490.356172  	0.163150 
1491.787830  	0.165700 
1493.219488  	0.167787 
1494.651146  	0.169508 
1496.082804  	0.171907 
1497.514462  	0.173733 
1498.946121  	0.174696 
1500.377779  	0.175152 
1501.809437  	0.173269 
1503.241095  	0.170113 
1504.672753  	0.166496 
1506.104412  	0.159537 
1507.536070  	0.146692 
1508.967728  	0.137744 
1510.399386  	0.130142 
1511.831044  	0.123370 
1513.262702  	0.119220 
1514.694361  	0.117335 
1516.126019  	0.117011 
1517.557677  	0.117273 
1518.989335  	0.117940 
1520.420993  	0.119596 
1521.852652  	0.120653 
1523.284310  	0.121411 
1524.715968  	0.122868 
1526.147626  	0.123512 
1527.579284  	0.124200 
1529.010943  	0.125247 
1530.442601  	0.125895 
1531.874259  	0.126946 
1533.305917  	0.127825 
1534.737575  	0.127889 
1536.169233  	0.128678 
1537.600892  	0.129523 
1539.032550  	0.130388 
1540.464208  	0.130890 
1541.895866  	0.130291 
1543.327524  	0.130756 
1544.759183  	0.130988 
1546.190841  	0.130717 
1547.622499  	0.131662 
1549.054157  	0.132538 
1550.485815  	0.132538 
1551.917473  	0.133078 
1553.349132  	0.133705 
1554.780790  	0.133853 
1556.212448  	0.134447 
1557.644106  	0.135321 
1559.075764  	0.135115 
1560.507423  	0.134064 
1561.939081  	0.134598 
1563.370739  	0.135004 
1564.802397  	0.134997 
1566.234055  	0.135338 
1567.665714  	0.136041 
1569.097372  	0.136311 
1570.529030  	0.136335 
1571.960688  	0.136779 
1573.392346  	0.137357 
1574.824004  	0.137855 
1576.255663  	0.137567 
1577.687321  	0.137102 
1579.118979  	0.137223 
1580.550637  	0.137078 
1581.982295  	0.137155 
1583.413954  	0.137662 
1584.845612  	0.137856 
1586.277270  	0.138208 
1587.708928  	0.138797 
1589.140586  	0.138952 
1590.572245  	0.138950 
1592.003903  	0.138828 
1593.435561  	0.138388 
1594.867219  	0.138191 
1596.298877  	0.138147 
1597.730535  	0.137934 
1599.162194  	0.137781 
1600.593852  	0.137695 
1602.025510  	0.137647 
1603.457168  	0.137457 
1604.888826  	0.137052 
1606.320485  	0.136661 
1607.752143  	0.136093 
1609.183801  	0.135633 
1610.615459  	0.135594 
1612.047117  	0.135532 
1613.478775  	0.135727 
1614.910434  	0.136210 
1616.342092  	0.136276 
1617.773750  	0.135939 
1619.205408  	0.136093 
1620.637066  	0.136494 
1622.068725  	0.136809 
1623.500383  	0.136728 
1624.932041  	0.136952 
1626.363699  	0.137439 
1627.795357  	0.137443 
1629.227016  	0.137519 
1630.658674  	0.138012 
1632.090332  	0.138337 
1633.521990  	0.138843 
1634.953648  	0.139465 
1636.385306  	0.139037 
1637.816965  	0.139069 
1639.248623  	0.139403 
1640.680281  	0.139068 
1642.111939  	0.139099 
1643.543597  	0.139937 
1644.975256  	0.140806 
1646.406914  	0.141243 
1647.838572  	0.140754 
1649.270230  	0.140741 
1650.701888  	0.141509 
1652.133547  	0.142061 
1653.565205  	0.140932 
1654.996863  	0.141042 
1656.428521  	0.141662 
1657.860179  	0.141930 
1659.291837  	0.142071 
1660.723496  	0.142345 
1662.155154  	0.142636 
1663.586812  	0.142790 
1665.018470  	0.143269 
1666.450128  	0.143806 
1667.881787  	0.144189 
1669.313445  	0.144647 
1670.745103  	0.144669 
1672.176761  	0.144950 
1673.608419  	0.145884 
1675.040077  	0.145910 
1676.471736  	0.145458 
1677.903394  	0.146391 
1679.335052  	0.147019 
1680.766710  	0.147616 
1682.198368  	0.148780 
1683.630027  	0.149197 
1685.061685  	0.148817 
1686.493343  	0.149625 
1687.925001  	0.150329 
1689.356659  	0.151264 
1690.788318  	0.152165 
1692.219976  	0.153234 
1693.651634  	0.154821 
1695.083292  	0.156143 
1696.514950  	0.157796 
1697.946608  	0.159726 
1699.378267  	0.160773 
1700.809925  	0.162561 
1702.241583  	0.165452 
1703.673241  	0.167729 
1705.104899  	0.170601 
1706.536558  	0.172998 
1707.968216  	0.175027 
1709.399874  	0.176908 
1710.831532  	0.176930 
1712.263190  	0.176352 
1713.694849  	0.175200 
1715.126507  	0.172096 
1716.558165  	0.169089 
1717.989823  	0.164157 
1719.421481  	0.157297 
1720.853139  	0.153341 
1722.284798  	0.148557 
1723.716456  	0.142563 
1725.148114  	0.138043 
1726.579772  	0.133176 
1728.011430  	0.128888 
1729.443089  	0.126082 
1730.874747  	0.122464 
1732.306405  	0.120612 
1733.738063  	0.119856 
1735.169721  	0.117368 
1736.601379  	0.118746 
1738.033038  	0.120351 
1739.464696  	0.121239 
1740.896354  	0.123525 
1742.328012  	0.125582 
1743.759670  	0.127403 
1745.191329  	0.129907 
1746.622987  	0.132247 
1748.054645  	0.134748 
1749.486303  	0.137034 
1750.917961  	0.138827 
1752.349620  	0.141307 
1753.781278  	0.144043 
1755.212936  	0.146795 
1756.644594  	0.149847 
1758.076252  	0.153083 
1759.507910  	0.156436 
1760.939569  	0.159316 
1762.371227  	0.161827 
1763.802885  	0.164117 
1765.234543  	0.165168 
1766.666201  	0.165551 
1768.097860  	0.164397 
1769.529518  	0.161483 
1770.961176  	0.159092 
1772.392834  	0.154567 
1773.824492  	0.148975 
1775.256150  	0.145544 
1776.687809  	0.140301 
1778.119467  	0.135077 
1779.551125  	0.131101 
1780.982783  	0.125039 
1782.414441  	0.119942 
1783.846100  	0.115849 
1785.277758  	0.110588 
1786.709416  	0.107160 
1788.141074  	0.103694 
1789.572732  	0.100037 
1791.004391  	0.098231 
1792.436049  	0.095053 
1793.867707  	0.092891 
1795.299365  	0.092779 
1796.731023  	0.091478 
1798.162681  	0.091452 
1799.594340  	0.092215 
1801.025998  	0.091997 
1802.457656  	0.092750 
1803.889314  	0.093426 
1805.320972  	0.094303 
1806.752631  	0.095628 
1808.184289  	0.095859 
1809.615947  	0.096768 
1811.047605  	0.098192 
1812.479263  	0.098541 
1813.910922  	0.099402 
1815.342580  	0.099885 
1816.774238  	0.099692 
1818.205896  	0.100511 
1819.637554  	0.101274 
1821.069212  	0.101805 
1822.500871  	0.102468 
1823.932529  	0.102750 
1825.364187  	0.103260 
1826.795845  	0.103495 
1828.227503  	0.103447 
1829.659162  	0.103802 
1831.090820  	0.104185 
1832.522478  	0.104910 
1833.954136  	0.105103 
1835.385794  	0.104730 
1836.817452  	0.105778 
1838.249111  	0.106538 
1839.680769  	0.106241 
1841.112427  	0.107067 
1842.544085  	0.107615 
1843.975743  	0.106926 
1845.407402  	0.106778 
1846.839060  	0.106820 
1848.270718  	0.106854 
1849.702376  	0.107128 
1851.134034  	0.107737 
1852.565693  	0.108441 
1853.997351  	0.108111 
1855.429009  	0.107926 
1856.860667  	0.108424 
1858.292325  	0.108204 
1859.723983  	0.108291 
1861.155642  	0.108644 
1862.587300  	0.108506 
1864.018958  	0.108890 
1865.450616  	0.109157 
1866.882274  	0.109342 
1868.313933  	0.109435 
1869.745591  	0.108242 
1871.177249  	0.108533 
1872.608907  	0.109588 
1874.040565  	0.109433 
1875.472224  	0.109867 
1876.903882  	0.110335 
1878.335540  	0.109917 
1879.767198  	0.110038 
1881.198856  	0.110067 
1882.630514  	0.110282 
1884.062173  	0.110626 
1885.493831  	0.110105 
1886.925489  	0.110453 
1888.357147  	0.110797 
1889.788805  	0.110063 
1891.220464  	0.110336 
1892.652122  	0.110219 
1894.083780  	0.109836 
1895.515438  	0.110539 
1896.947096  	0.110171 
1898.378754  	0.109627 
1899.810413  	0.109730 
1901.242071  	0.109303 
1902.673729  	0.109686 
1904.105387  	0.109998 
1905.537045  	0.109549 
1906.968704  	0.109890 
1908.400362  	0.109717 
1909.832020  	0.109083 
1911.263678  	0.108948 
1912.695336  	0.108580 
1914.126995  	0.108984 
1915.558653  	0.109096 
1916.990311  	0.108164 
1918.421969  	0.108277 
1919.853627  	0.108599 
1921.285285  	0.108893 
1922.716944  	0.109284 
1924.148602  	0.108204 
1925.580260  	0.108210 
1927.011918  	0.109162 
1928.443576  	0.108459 
1929.875235  	0.107655 
1931.306893  	0.107258 
1932.738551  	0.106956 
1934.170209  	0.106962 
1935.601867  	0.106228 
1937.033525  	0.106436 
1938.465184  	0.107568 
1939.896842  	0.107667 
1941.328500  	0.107493 
1942.760158  	0.106404 
1944.191816  	0.105890 
1945.623475  	0.107034 
1947.055133  	0.106206 
1948.486791  	0.105146 
1949.918449  	0.106003 
1951.350107  	0.106222 
1952.781766  	0.106181 
1954.213424  	0.105290 
1955.645082  	0.103571 
1957.076740  	0.103544 
1958.508398  	0.103311 
1959.940056  	0.102931 
1961.371715  	0.103188 
1962.803373  	0.103327 
1964.235031  	0.105071 
1965.666689  	0.104977 
1967.098347  	0.102451 
1968.530006  	0.101946 
1969.961664  	0.100625 
1971.393322  	0.100059 
1972.824980  	0.101609 
1974.256638  	0.100545 
1975.688297  	0.101365 
1977.119955  	0.104061 
1978.551613  	0.103039 
1979.983271  	0.101576 
1981.414929  	0.100795 
1982.846587  	0.101081 
1984.278246  	0.101962 
1985.709904  	0.100773 
1987.141562  	0.101119 
1988.573220  	0.102187 
1990.004878  	0.101369 
1991.436537  	0.102384 
1992.868195  	0.101732 
1994.299853  	0.098884 
1995.731511  	0.100301 
1997.163169  	0.102564 
1998.594827  	0.102103 
2000.026486  	0.101108 
2001.458144  	0.101912 
2002.889802  	0.104522 
2004.321460  	0.103947 
2005.753118  	0.101425 
2007.184777  	0.101623 
2008.616435  	0.101204 
2010.048093  	0.100847 
2011.479751  	0.100519 
2012.911409  	0.097627 
2014.343068  	0.097313 
2015.774726  	0.098286 
2017.206384  	0.098082 
2018.638042  	0.099738 
2020.069700  	0.099441 
2021.501358  	0.099249 
2022.933017  	0.100944 
2024.364675  	0.099824 
2025.796333  	0.100932 
2027.227991  	0.103155 
2028.659649  	0.100855 
2030.091308  	0.100556 
2031.522966  	0.101557 
2032.954624  	0.100266 
2034.386282  	0.100455 
2035.817940  	0.101117 
2037.249599  	0.101759 
2038.681257  	0.102413 
2040.112915  	0.103192 
2041.544573  	0.105425 
2042.976231  	0.104920 
2044.407889  	0.102963 
2045.839548  	0.103624 
2047.271206  	0.102696 
2048.702864  	0.101598 
2050.134522  	0.103850 
2051.566180  	0.105470 
2052.997839  	0.105768 
2054.429497  	0.105793 
2055.861155  	0.105456 
2057.292813  	0.104842 
2058.724471  	0.103641 
2060.156129  	0.103737 
2061.587788  	0.104505 
2063.019446  	0.103700 
2064.451104  	0.103843 
2065.882762  	0.105087 
2067.314420  	0.105403 
2068.746079  	0.105263 
2070.177737  	0.104715 
2071.609395  	0.105386 
2073.041053  	0.106484 
2074.472711  	0.105343 
2075.904370  	0.105196 
2077.336028  	0.106444 
2078.767686  	0.105608 
2080.199344  	0.104689 
2081.631002  	0.105428 
2083.062660  	0.106207 
2084.494319  	0.106126 
2085.925977  	0.105642 
2087.357635  	0.105688 
2088.789293  	0.105557 
2090.220951  	0.105440 
2091.652610  	0.106020 
2093.084268  	0.105576 
2094.515926  	0.105415 
2095.947584  	0.106180 
2097.379242  	0.105213 
2098.810901  	0.104935 
2100.242559  	0.105757 
2101.674217  	0.104804 
2103.105875  	0.104542 
2104.537533  	0.104929 
2105.969191  	0.104203 
2107.400850  	0.104377 
2108.832508  	0.104732 
2110.264166  	0.105118 
2111.695824  	0.106709 
2113.127482  	0.107323 
2114.559141  	0.106411 
2115.990799  	0.105356 
2117.422457  	0.104941 
2118.854115  	0.105181 
2120.285773  	0.104951 
2121.717431  	0.105604 
2123.149090  	0.106840 
2124.580748  	0.106005 
2126.012406  	0.105711 
2127.444064  	0.106613 
2128.875722  	0.105831 
2130.307381  	0.104934 
2131.739039  	0.104137 
2133.170697  	0.103270 
2134.602355  	0.104090 
2136.034013  	0.103887 
2137.465672  	0.103108 
2138.897330  	0.103848 
2140.328988  	0.103426 
2141.760646  	0.102394 
2143.192304  	0.101764 
2144.623962  	0.101458 
2146.055621  	0.101763 
2147.487279  	0.099696 
2148.918937  	0.098739 
2150.350595  	0.101308 
2151.782253  	0.100489 
2153.213912  	0.098973 
2154.645570  	0.100826 
2156.077228  	0.100712 
2157.508886  	0.097678 
2158.940544  	0.094171 
2160.372202  	0.095172 
2161.803861  	0.099868 
2163.235519  	0.099594 
2164.667177  	0.097975 
2166.098835  	0.099374 
2167.530493  	0.099578 
2168.962152  	0.098217 
2170.393810  	0.096784 
2171.825468  	0.097633 
2173.257126  	0.100663 
2174.688784  	0.101304 
2176.120443  	0.100553 
2177.552101  	0.099963 
2178.983759  	0.099200 
2180.415417  	0.100047 
2181.847075  	0.099315 
2183.278733  	0.097991 
2184.710392  	0.100842 
2186.142050  	0.102696 
2187.573708  	0.101868 
2189.005366  	0.101726 
2190.437024  	0.101554 
2191.868683  	0.102036 
2193.300341  	0.102703 
2194.731999  	0.102080 
2196.163657  	0.101334 
2197.595315  	0.100598 
2199.026974  	0.101224 
2200.458632  	0.102871 
2201.890290  	0.102573 
2203.321948  	0.101440 
2204.753606  	0.100580 
2206.185264  	0.100872 
2207.616923  	0.102742 
2209.048581  	0.102346 
2210.480239  	0.101013 
2211.911897  	0.101672 
2213.343555  	0.101591 
2214.775214  	0.101561 
2216.206872  	0.102249 
2217.638530  	0.101679 
2219.070188  	0.101603 
2220.501846  	0.102277 
2221.933504  	0.102564 
2223.365163  	0.102443 
2224.796821  	0.101712 
2226.228479  	0.102528 
2227.660137  	0.103784 
2229.091795  	0.102425 
2230.523454  	0.101026 
2231.955112  	0.100944 
2233.386770  	0.101132 
2234.818428  	0.101347 
2236.250086  	0.100625 
2237.681745  	0.100780 
2239.113403  	0.102293 
2240.545061  	0.102572 
2241.976719  	0.102603 
2243.408377  	0.102828 
2244.840035  	0.102480 
2246.271694  	0.102284 
2247.703352  	0.101642 
2249.135010  	0.101611 
2250.566668  	0.102722 
2251.998326  	0.102671 
2253.429985  	0.102262 
2254.861643  	0.102396 
2256.293301  	0.102574 
2257.724959  	0.103287 
2259.156617  	0.103346 
2260.588276  	0.103088 
2262.019934  	0.103290 
2263.451592  	0.102443 
2264.883250  	0.101856 
2266.314908  	0.102017 
2267.746566  	0.101606 
2269.178225  	0.102330 
2270.609883  	0.103669 
2272.041541  	0.104223 
2273.473199  	0.104476 
2274.904857  	0.103122 
2276.336516  	0.101562 
2277.768174  	0.102170 
2279.199832  	0.102537 
2280.631490  	0.102013 
2282.063148  	0.102329 
2283.494806  	0.102992 
2284.926465  	0.103258 
2286.358123  	0.103328 
2287.789781  	0.103644 
2289.221439  	0.103756 
2290.653097  	0.103351 
2292.084756  	0.103477 
2293.516414  	0.103668 
2294.948072  	0.103354 
2296.379730  	0.103715 
2297.811388  	0.104170 
2299.243047  	0.104026 
2300.674705  	0.104205 
2302.106363  	0.104540 
2303.538021  	0.104734 
2304.969679  	0.104842 
2306.401337  	0.104982 
2307.832996  	0.105703 
2309.264654  	0.106386 
2310.696312  	0.106700 
2312.127970  	0.107161 
2313.559628  	0.107194 
2314.991287  	0.107113 
2316.422945  	0.107494 
2317.854603  	0.107807 
2319.286261  	0.108541 
2320.717919  	0.109340 
2322.149577  	0.109136 
2323.581236  	0.108965 
2325.012894  	0.109437 
2326.444552  	0.110128 
2327.876210  	0.110897 
2329.307868  	0.111308 
2330.739527  	0.111429 
2332.171185  	0.111390 
2333.602843  	0.111042 
2335.034501  	0.110859 
2336.466159  	0.110853 
2337.897818  	0.110935 
2339.329476  	0.111296 
2340.761134  	0.111554 
2342.192792  	0.111651 
2343.624450  	0.111502 
2345.056108  	0.110780 
2346.487767  	0.109540 
2347.919425  	0.108127 
2349.351083  	0.107722 
2350.782741  	0.108972 
2352.214399  	0.110690 
2353.646058  	0.111577 
2355.077716  	0.112184 
2356.509374  	0.112814 
2357.941032  	0.113365 
2359.372690  	0.113667 
2360.804349  	0.113648 
2362.236007  	0.113421 
2363.667665  	0.112659 
2365.099323  	0.112057 
2366.530981  	0.111770 
2367.962639  	0.111001 
2369.394298  	0.110370 
2370.825956  	0.109639 
2372.257614  	0.108561 
2373.689272  	0.108049 
2375.120930  	0.107440 
2376.552589  	0.106676 
2377.984247  	0.106218 
2379.415905  	0.105135 
2380.847563  	0.103958 
2382.279221  	0.103421 
2383.710879  	0.102724 
2385.142538  	0.101948 
2386.574196  	0.101455 
2388.005854  	0.101228 
2389.437512  	0.101323 
2390.869170  	0.101155 
2392.300829  	0.100958 
2393.732487  	0.101342 
2395.164145  	0.101429 
2396.595803  	0.100876 
2398.027461  	0.100371 
2399.459120  	0.100150 
2400.890778  	0.100290 
2402.322436  	0.100624 
2403.754094  	0.100918 
2405.185752  	0.101091 
2406.617410  	0.100958 
2408.049069  	0.100761 
2409.480727  	0.100905 
2410.912385  	0.101187 
2412.344043  	0.100926 
2413.775701  	0.100259 
2415.207360  	0.100390 
2416.639018  	0.100776 
2418.070676  	0.099979 
2419.502334  	0.099198 
2420.933992  	0.099633 
2422.365651  	0.100287 
2423.797309  	0.100339 
2425.228967  	0.099943 
2426.660625  	0.099817 
2428.092283  	0.099966 
2429.523941  	0.099769 
2430.955600  	0.099809 
2432.387258  	0.099922 
2433.818916  	0.099251 
2435.250574  	0.098961 
2436.682232  	0.099490 
2438.113891  	0.099572 
2439.545549  	0.099272 
2440.977207  	0.099323 
2442.408865  	0.099685 
2443.840523  	0.099814 
2445.272181  	0.099568 
2446.703840  	0.099567 
2448.135498  	0.099523 
2449.567156  	0.098836 
2450.998814  	0.098352 
2452.430472  	0.098492 
2453.862131  	0.098508 
2455.293789  	0.098350 
2456.725447  	0.098569 
2458.157105  	0.098849 
2459.588763  	0.098697 
2461.020422  	0.098689 
2462.452080  	0.098862 
2463.883738  	0.098617 
2465.315396  	0.098585 
2466.747054  	0.098816 
2468.178712  	0.098631 
2469.610371  	0.098708 
2471.042029  	0.099044 
2472.473687  	0.098848 
2473.905345  	0.098610 
2475.337003  	0.098595 
2476.768662  	0.098427 
2478.200320  	0.098299 
2479.631978  	0.098547 
2481.063636  	0.098869 
2482.495294  	0.098600 
2483.926953  	0.098245 
2485.358611  	0.098379 
2486.790269  	0.098148 
2488.221927  	0.097733 
2489.653585  	0.097831 
2491.085243  	0.097864 
2492.516902  	0.097922 
2493.948560  	0.098223 
2495.380218  	0.098366 
2496.811876  	0.098368 
2498.243534  	0.097975 
2499.675193  	0.097512 
2501.106851  	0.097624 
2502.538509  	0.097623 
2503.970167  	0.097391 
2505.401825  	0.097381 
2506.833483  	0.097330 
2508.265142  	0.097380 
2509.696800  	0.097563 
2511.128458  	0.097647 
2512.560116  	0.097494 
2513.991774  	0.096870 
2515.423433  	0.096586 
2516.855091  	0.097084 
2518.286749  	0.097270 
2519.718407  	0.096956 
2521.150065  	0.096729 
2522.581724  	0.096864 
2524.013382  	0.097379 
2525.445040  	0.097711 
2526.876698  	0.097469 
2528.308356  	0.096736 
2529.740014  	0.096383 
2531.171673  	0.097080 
2532.603331  	0.097343 
2534.034989  	0.096799 
2535.466647  	0.096735 
2536.898305  	0.096455 
2538.329964  	0.096149 
2539.761622  	0.096771 
2541.193280  	0.096783 
2542.624938  	0.096191 
2544.056596  	0.096453 
2545.488254  	0.096832 
2546.919913  	0.096581 
2548.351571  	0.096106 
2549.783229  	0.096079 
2551.214887  	0.096345 
2552.646545  	0.095975 
2554.078204  	0.095657 
2555.509862  	0.095912 
2556.941520  	0.095925 
2558.373178  	0.095981 
2559.804836  	0.095905 
2561.236495  	0.095351 
2562.668153  	0.095205 
2564.099811  	0.095321 
2565.531469  	0.095721 
2566.963127  	0.096487 
2568.394785  	0.096231 
2569.826444  	0.095442 
2571.258102  	0.095360 
2572.689760  	0.095449 
2574.121418  	0.095619 
2575.553076  	0.095692 
2576.984735  	0.095458 
2578.416393  	0.095589 
2579.848051  	0.095712 
2581.279709  	0.095473 
2582.711367  	0.095195 
2584.143026  	0.094658 
2585.574684  	0.094469 
2587.006342  	0.095148 
2588.438000  	0.095758 
2589.869658  	0.095651 
2591.301316  	0.095184 
2592.732975  	0.095086 
2594.164633  	0.095151 
2595.596291  	0.094597 
2597.027949  	0.094192 
2598.459607  	0.094509 
2599.891266  	0.094587 
2601.322924  	0.094274 
2602.754582  	0.094227 
2604.186240  	0.094622 
2605.617898  	0.095083 
2607.049556  	0.095089 
2608.481215  	0.094893 
2609.912873  	0.094808 
2611.344531  	0.094476 
2612.776189  	0.094039 
2614.207847  	0.093923 
2615.639506  	0.093975 
2617.071164  	0.094099 
2618.502822  	0.094417 
2619.934480  	0.094614 
2621.366138  	0.094361 
2622.797797  	0.094044 
2624.229455  	0.093922 
2625.661113  	0.093891 
2627.092771  	0.094115 
2628.524429  	0.094192 
2629.956087  	0.093797 
2631.387746  	0.093752 
2632.819404  	0.094131 
2634.251062  	0.094191 
2635.682720  	0.093950 
2637.114378  	0.093819 
2638.546037  	0.094069 
2639.977695  	0.094257 
2641.409353  	0.093954 
2642.841011  	0.093924 
2644.272669  	0.094263 
2645.704328  	0.094237 
2647.135986  	0.094016 
2648.567644  	0.093803 
2649.999302  	0.093693 
2651.430960  	0.093852 
2652.862618  	0.093866 
2654.294277  	0.093765 
2655.725935  	0.093812 
2657.157593  	0.093778 
2658.589251  	0.093746 
2660.020909  	0.093724 
2661.452568  	0.093682 
2662.884226  	0.093835 
2664.315884  	0.093802 
2665.747542  	0.093456 
2667.179200  	0.093282 
2668.610858  	0.093282 
2670.042517  	0.093331 
2671.474175  	0.093371 
2672.905833  	0.093354 
2674.337491  	0.093369 
2675.769149  	0.093263 
2677.200808  	0.093168 
2678.632466  	0.093255 
2680.064124  	0.093189 
2681.495782  	0.093161 
2682.927440  	0.093343 
2684.359099  	0.093274 
2685.790757  	0.093041 
2687.222415  	0.092971 
2688.654073  	0.092990 
2690.085731  	0.092924 
2691.517389  	0.092812 
2692.949048  	0.092923 
2694.380706  	0.092960 
2695.812364  	0.092754 
2697.244022  	0.092854 
2698.675680  	0.092933 
2700.107339  	0.092625 
2701.538997  	0.092502 
2702.970655  	0.092547 
2704.402313  	0.092543 
2705.833971  	0.092508 
2707.265630  	0.092356 
2708.697288  	0.092426 
2710.128946  	0.092652 
2711.560604  	0.092710 
2712.992262  	0.092765 
2714.423920  	0.092595 
2715.855579  	0.092339 
2717.287237  	0.092420 
2718.718895  	0.092406 
2720.150553  	0.092319 
2721.582211  	0.092326 
2723.013870  	0.092127 
2724.445528  	0.092104 
2725.877186  	0.092270 
2727.308844  	0.092153 
2728.740502  	0.092005 
2730.172160  	0.091944 
2731.603819  	0.091893 
2733.035477  	0.091884 
2734.467135  	0.091874 
2735.898793  	0.091999 
2737.330451  	0.091986 
2738.762110  	0.091749 
2740.193768  	0.091846 
2741.625426  	0.092055 
2743.057084  	0.091979 
2744.488742  	0.091763 
2745.920401  	0.091495 
2747.352059  	0.091503 
2748.783717  	0.091660 
2750.215375  	0.091519 
2751.647033  	0.091426 
2753.078691  	0.091503 
2754.510350  	0.091587 
2755.942008  	0.091618 
2757.373666  	0.091371 
2758.805324  	0.091308 
2760.236982  	0.091575 
2761.668641  	0.091441 
2763.100299  	0.091216 
2764.531957  	0.091307 
2765.963615  	0.091233 
2767.395273  	0.091089 
2768.826931  	0.091224 
2770.258590  	0.091492 
2771.690248  	0.091609 
2773.121906  	0.091442 
2774.553564  	0.091159 
2775.985222  	0.090965 
2777.416881  	0.091085 
2778.848539  	0.091398 
2780.280197  	0.091302 
2781.711855  	0.090954 
2783.143513  	0.090844 
2784.575172  	0.090812 
2786.006830  	0.090802 
2787.438488  	0.090773 
2788.870146  	0.090651 
2790.301804  	0.090545 
2791.733462  	0.090468 
2793.165121  	0.090695 
2794.596779  	0.090980 
2796.028437  	0.090769 
2797.460095  	0.090647 
2798.891753  	0.090672 
2800.323412  	0.090343 
2801.755070  	0.090291 
2803.186728  	0.090522 
2804.618386  	0.090521 
2806.050044  	0.090575 
2807.481703  	0.090595 
2808.913361  	0.090486 
2810.345019  	0.090443 
2811.776677  	0.090399 
2813.208335  	0.090485 
2814.639993  	0.090510 
2816.071652  	0.090382 
2817.503310  	0.090473 
2818.934968  	0.090521 
2820.366626  	0.090573 
2821.798284  	0.090795 
2823.229943  	0.090605 
2824.661601  	0.090256 
2826.093259  	0.090163 
2827.524917  	0.090187 
2828.956575  	0.090530 
2830.388233  	0.090652 
2831.819892  	0.090213 
2833.251550  	0.090071 
2834.683208  	0.090176 
2836.114866  	0.090197 
2837.546524  	0.090356 
2838.978183  	0.090432 
2840.409841  	0.090464 
2841.841499  	0.090531 
2843.273157  	0.090411 
2844.704815  	0.090402 
2846.136474  	0.090545 
2847.568132  	0.090537 
2848.999790  	0.090400 
2850.431448  	0.090242 
2851.863106  	0.090345 
2853.294764  	0.090645 
2854.726423  	0.090708 
2856.158081  	0.090686 
2857.589739  	0.090750 
2859.021397  	0.090682 
2860.453055  	0.090523 
2861.884714  	0.090657 
2863.316372  	0.091154 
2864.748030  	0.091297 
2866.179688  	0.091065 
2867.611346  	0.091352 
2869.043005  	0.091816 
2870.474663  	0.091756 
2871.906321  	0.091411 
2873.337979  	0.090925 
2874.769637  	0.090568 
2876.201295  	0.090538 
2877.632954  	0.090421 
2879.064612  	0.090190 
2880.496270  	0.089955 
2881.927928  	0.089762 
2883.359586  	0.089891 
2884.791245  	0.090100 
2886.222903  	0.090148 
2887.654561  	0.090184 
2889.086219  	0.090149 
2890.517877  	0.090199 
2891.949535  	0.090334 
2893.381194  	0.090206 
2894.812852  	0.090010 
2896.244510  	0.089942 
2897.676168  	0.089889 
2899.107826  	0.089874 
2900.539485  	0.089821 
2901.971143  	0.089705 
2903.402801  	0.089648 
2904.834459  	0.089660 
2906.266117  	0.089670 
2907.697776  	0.089596 
2909.129434  	0.089621 
2910.561092  	0.089819 
2911.992750  	0.089855 
2913.424408  	0.089682 
2914.856066  	0.089425 
2916.287725  	0.089185 
2917.719383  	0.089180 
2919.151041  	0.089300 
2920.582699  	0.089383 
2922.014357  	0.089370 
2923.446016  	0.089187 
2924.877674  	0.089231 
2926.309332  	0.089570 
2927.740990  	0.089693 
2929.172648  	0.089674 
2930.604306  	0.089731 
2932.035965  	0.089769 
2933.467623  	0.089727 
2934.899281  	0.089613 
2936.330939  	0.089656 
2937.762597  	0.089750 
2939.194256  	0.089645 
2940.625914  	0.089624 
2942.057572  	0.089599 
2943.489230  	0.089464 
2944.920888  	0.089605 
2946.352547  	0.089725 
2947.784205  	0.089619 
2949.215863  	0.089667 
2950.647521  	0.089788 
2952.079179  	0.089950 
2953.510837  	0.090111 
2954.942496  	0.090070 
2956.374154  	0.090294 
2957.805812  	0.090916 
2959.237470  	0.091287 
2960.669128  	0.091233 
2962.100787  	0.091032 
2963.532445  	0.090868 
2964.964103  	0.090619 
2966.395761  	0.090196 
2967.827419  	0.089865 
2969.259078  	0.089420 
2970.690736  	0.088563 
2972.122394  	0.087694 
2973.554052  	0.086907 
2974.985710  	0.086066 
2976.417368  	0.085456 
2977.849027  	0.085075 
2979.280685  	0.084618 
2980.712343  	0.083982 
2982.144001  	0.083366 
2983.575659  	0.083029 
2985.007318  	0.082744 
2986.438976  	0.082281 
2987.870634  	0.082001 
2989.302292  	0.082058 
2990.733950  	0.081954 
2992.165608  	0.081557 
2993.597267  	0.081392 
2995.028925  	0.081419 
2996.460583  	0.081206 
2997.892241  	0.081056 
2999.323899  	0.081215 
3000.755558  	0.081417 
3002.187216  	0.081519 
3003.618874  	0.081402 
3005.050532  	0.081235 
3006.482190  	0.081214 
3007.913849  	0.081058 
3009.345507  	0.080977 
3010.777165  	0.081252 
3012.208823  	0.081392 
3013.640481  	0.081189 
3015.072139  	0.080978 
3016.503798  	0.081098 
3017.935456  	0.081471 
3019.367114  	0.081540 
3020.798772  	0.081447 
3022.230430  	0.081588 
3023.662089  	0.081622 
3025.093747  	0.081503 
3026.525405  	0.081520 
3027.957063  	0.081744 
3029.388721  	0.082107 
3030.820380  	0.082216 
3032.252038  	0.082170 
3033.683696  	0.082370 
3035.115354  	0.082420 
3036.547012  	0.082239 
3037.978670  	0.082197 
3039.410329  	0.082243 
3040.841987  	0.082385 
3042.273645  	0.082439 
3043.705303  	0.082188 
3045.136961  	0.081991 
3046.568620  	0.082003 
3048.000278  	0.082067 
3049.431936  	0.082037 
3050.863594  	0.081772 
3052.295252  	0.081643 
3053.726910  	0.081924 
3055.158569  	0.082170 
3056.590227  	0.082079 
3058.021885  	0.081810 
3059.453543  	0.081551 
3060.885201  	0.081428 
3062.316860  	0.081524 
3063.748518  	0.081624 
3065.180176  	0.081479 
3066.611834  	0.081339 
3068.043492  	0.081209 
3069.475151  	0.080816 
3070.906809  	0.080612 
3072.338467  	0.080832 
3073.770125  	0.081044 
3075.201783  	0.081061 
3076.633441  	0.080861 
3078.065100  	0.080649 
3079.496758  	0.080527 
3080.928416  	0.080423 
3082.360074  	0.080643 
3083.791732  	0.080644 
3085.223391  	0.080035 
3086.655049  	0.079927 
3088.086707  	0.080146 
3089.518365  	0.079966 
3090.950023  	0.079976 
3092.381682  	0.079850 
3093.813340  	0.079535 
3095.244998  	0.079897 
3096.676656  	0.080236 
3098.108314  	0.080115 
3099.539972  	0.080136 
3100.971631  	0.080167 
3102.403289  	0.080176 
3103.834947  	0.080077 
3105.266605  	0.079752 
3106.698263  	0.079681 
3108.129922  	0.079792 
3109.561580  	0.079804 
3110.993238  	0.079736 
3112.424896  	0.079656 
3113.856554  	0.079873 
3115.288212  	0.079948 
3116.719871  	0.079554 
3118.151529  	0.079264 
3119.583187  	0.078959 
3121.014845  	0.078789 
3122.446503  	0.079135 
3123.878162  	0.079327 
3125.309820  	0.079429 
3126.741478  	0.079643 
3128.173136  	0.079483 
3129.604794  	0.079389 
3131.036453  	0.079457 
3132.468111  	0.079241 
3133.899769  	0.079005 
3135.331427  	0.078949 
3136.763085  	0.079234 
3138.194743  	0.079454 
3139.626402  	0.079053 
3141.058060  	0.078918 
3142.489718  	0.079203 
3143.921376  	0.079089 
3145.353034  	0.078873 
3146.784693  	0.078772 
3148.216351  	0.078809 
3149.648009  	0.079065 
3151.079667  	0.079080 
3152.511325  	0.078970 
3153.942983  	0.078845 
3155.374642  	0.078583 
3156.806300  	0.078697 
3158.237958  	0.078975 
3159.669616  	0.078995 
3161.101274  	0.078876 
3162.532933  	0.078511 
3163.964591  	0.078310 
3165.396249  	0.078328 
3166.827907  	0.078214 
3168.259565  	0.078478 
3169.691224  	0.078680 
3171.122882  	0.078482 
3172.554540  	0.078783 
3173.986198  	0.078926 
3175.417856  	0.078345 
3176.849514  	0.078051 
3178.281173  	0.078125 
3179.712831  	0.078282 
3181.144489  	0.078435 
3182.576147  	0.078237 
3184.007805  	0.077941 
3185.439464  	0.077912 
3186.871122  	0.078243 
3188.302780  	0.078555 
3189.734438  	0.078322 
3191.166096  	0.078184 
3192.597755  	0.078372 
3194.029413  	0.078274 
3195.461071  	0.078085 
3196.892729  	0.077695 
3198.324387  	0.077252 
3199.756045  	0.077642 
3201.187704  	0.078144 
3202.619362  	0.077990 
3204.051020  	0.077847 
3205.482678  	0.077932 
3206.914336  	0.077907 
3208.345995  	0.077596 
3209.777653  	0.077313 
3211.209311  	0.077409 
3212.640969  	0.077434 
3214.072627  	0.077322 
3215.504285  	0.077313 
3216.935944  	0.077214 
3218.367602  	0.077254 
3219.799260  	0.077377 
3221.230918  	0.077402 
3222.662576  	0.077589 
3224.094235  	0.077459 
3225.525893  	0.077079 
3226.957551  	0.077194 
3228.389209  	0.077313 
3229.820867  	0.077101 
3231.252526  	0.076950 
3232.684184  	0.076974 
3234.115842  	0.077160 
3235.547500  	0.077077 
3236.979158  	0.076849 
3238.410816  	0.077029 
3239.842475  	0.077127 
3241.274133  	0.077082 
3242.705791  	0.077145 
3244.137449  	0.076838 
3245.569107  	0.076503 
3247.000766  	0.076576 
3248.432424  	0.076653 
3249.864082  	0.076670 
3251.295740  	0.076591 
3252.727398  	0.076411 
3254.159057  	0.076300 
3255.590715  	0.076288 
3257.022373  	0.076559 
3258.454031  	0.076747 
3259.885689  	0.076540 
3261.317347  	0.076559 
3262.749006  	0.076804 
3264.180664  	0.076909 
3265.612322  	0.076857 
3267.043980  	0.076344 
3268.475638  	0.075819 
3269.907297  	0.076016 
3271.338955  	0.076404 
3272.770613  	0.076332 
3274.202271  	0.076066 
3275.633929  	0.076168 
3277.065587  	0.076499 
3278.497246  	0.076530 
3279.928904  	0.076381 
3281.360562  	0.076157 
3282.792220  	0.075947 
3284.223878  	0.076070 
3285.655537  	0.076094 
3287.087195  	0.076019 
3288.518853  	0.076188 
3289.950511  	0.075927 
3291.382169  	0.075527 
3292.813828  	0.075631 
3294.245486  	0.075589 
3295.677144  	0.075631 
3297.108802  	0.075907 
3298.540460  	0.075544 
3299.972118  	0.075231 
3301.403777  	0.075685 
3302.835435  	0.075998 
3304.267093  	0.075876 
3305.698751  	0.075764 
3307.130409  	0.075694 
3308.562068  	0.075539 
3309.993726  	0.075331 
3311.425384  	0.075192 
3312.857042  	0.075093 
3314.288700  	0.075166 
3315.720359  	0.075440 
3317.152017  	0.075383 
3318.583675  	0.075047 
3320.015333  	0.075079 
3321.446991  	0.075290 
3322.878649  	0.075140 
3324.310308  	0.074847 
3325.741966  	0.074930 
3327.173624  	0.075243 
3328.605282  	0.075247 
3330.036940  	0.075015 
3331.468599  	0.074985 
3332.900257  	0.075157 
3334.331915  	0.075167 
3335.763573  	0.074958 
3337.195231  	0.074983 
3338.626889  	0.075145 
3340.058548  	0.074959 
3341.490206  	0.074736 
3342.921864  	0.074769 
3344.353522  	0.074799 
3345.785180  	0.074642 
3347.216839  	0.074317 
3348.648497  	0.074333 
3350.080155  	0.074832 
3351.511813  	0.075043 
3352.943471  	0.074862 
3354.375130  	0.074688 
3355.806788  	0.074564 
3357.238446  	0.074685 
3358.670104  	0.074952 
3360.101762  	0.074941 
3361.533420  	0.074615 
3362.965079  	0.074340 
3364.396737  	0.074443 
3365.828395  	0.074380 
3367.260053  	0.073946 
3368.691711  	0.074043 
3370.123370  	0.074300 
3371.555028  	0.073927 
3372.986686  	0.073606 
3374.418344  	0.073695 
3375.850002  	0.073980 
3377.281660  	0.074260 
3378.713319  	0.074128 
3380.144977  	0.073862 
3381.576635  	0.073849 
3383.008293  	0.073949 
3384.439951  	0.073931 
3385.871610  	0.073462 
3387.303268  	0.073218 
3388.734926  	0.073752 
3390.166584  	0.073995 
3391.598242  	0.073951 
3393.029901  	0.074263 
3394.461559  	0.074149 
3395.893217  	0.073699 
3397.324875  	0.073705 
3398.756533  	0.074005 
3400.188191  	0.074267 
3401.619850  	0.074089 
3403.051508  	0.073651 
3404.483166  	0.073798 
3405.914824  	0.074233 
3407.346482  	0.074309 
3408.778141  	0.074222 
3410.209799  	0.074027 
3411.641457  	0.073598 
3413.073115  	0.073330 
3414.504773  	0.073537 
3415.936432  	0.073581 
3417.368090  	0.073149 
3418.799748  	0.073090 
3420.231406  	0.073494 
3421.663064  	0.073778 
3423.094722  	0.074008 
3424.526381  	0.073968 
3425.958039  	0.073521 
3427.389697  	0.073136 
3428.821355  	0.072895 
3430.253013  	0.072753 
3431.684672  	0.072763 
3433.116330  	0.072939 
3434.547988  	0.073209 
3435.979646  	0.073156 
3437.411304  	0.072922 
3438.842962  	0.072907 
3440.274621  	0.072915 
3441.706279  	0.073065 
3443.137937  	0.073214 
3444.569595  	0.073039 
3446.001253  	0.072991 
3447.432912  	0.072790 
3448.864570  	0.072317 
3450.296228  	0.072323 
3451.727886  	0.072383 
3453.159544  	0.072459 
3454.591203  	0.072846 
3456.022861  	0.072602 
3457.454519  	0.072158 
3458.886177  	0.072535 
3460.317835  	0.072793 
3461.749493  	0.072579 
3463.181152  	0.072563 
3464.612810  	0.072586 
3466.044468  	0.072503 
3467.476126  	0.072549 
3468.907784  	0.072618 
3470.339443  	0.072402 
3471.771101  	0.072209 
3473.202759  	0.072498 
3474.634417  	0.072629 
3476.066075  	0.072268 
3477.497734  	0.072154 
3478.929392  	0.072386 
3480.361050  	0.072593 
3481.792708  	0.072463 
3483.224366  	0.072084 
3484.656024  	0.072110 
3486.087683  	0.072029 
3487.519341  	0.071394 
3488.950999  	0.071314 
3490.382657  	0.071735 
3491.814315  	0.071801 
3493.245974  	0.071716 
3494.677632  	0.071410 
3496.109290  	0.071085 
3497.540948  	0.071439 
3498.972606  	0.071976 
3500.404264  	0.072088 
3501.835923  	0.071896 
3503.267581  	0.071621 
3504.699239  	0.071720 
3506.130897  	0.071929 
3507.562555  	0.071719 
3508.994214  	0.071824 
3510.425872  	0.072454 
3511.857530  	0.072226 
3513.289188  	0.071525 
3514.720846  	0.071740 
3516.152505  	0.072131 
3517.584163  	0.071833 
3519.015821  	0.071528 
3520.447479  	0.071478 
3521.879137  	0.071617 
3523.310795  	0.071810 
3524.742454  	0.071605 
3526.174112  	0.071649 
3527.605770  	0.072080 
3529.037428  	0.071909 
3530.469086  	0.071485 
3531.900745  	0.071225 
3533.332403  	0.070924 
3534.764061  	0.070899 
3536.195719  	0.070862 
3537.627377  	0.070799 
3539.059035  	0.071215 
3540.490694  	0.071323 
3541.922352  	0.070908 
3543.354010  	0.070947 
3544.785668  	0.071344 
3546.217326  	0.071136 
3547.648985  	0.070342 
3549.080643  	0.070193 
3550.512301  	0.070775 
3551.943959  	0.071064 
3553.375617  	0.070932 
3554.807276  	0.070696 
3556.238934  	0.070382 
3557.670592  	0.070444 
3559.102250  	0.070624 
3560.533908  	0.070524 
3561.965566  	0.070584 
3563.397225  	0.070755 
3564.828883  	0.071123 
3566.260541  	0.071472 
3567.692199  	0.070605 
3569.123857  	0.069915 
3570.555516  	0.070260 
3571.987174  	0.070282 
3573.418832  	0.070196 
3574.850490  	0.070334 
3576.282148  	0.070400 
3577.713807  	0.070230 
3579.145465  	0.069619 
3580.577123  	0.069445 
3582.008781  	0.069956 
3583.440439  	0.069936 
3584.872097  	0.069968 
3586.303756  	0.070431 
3587.735414  	0.069825 
3589.167072  	0.069096 
3590.598730  	0.069574 
3592.030388  	0.069847 
3593.462047  	0.069913 
3594.893705  	0.070205 
3596.325363  	0.070308 
3597.757021  	0.070216 
3599.188679  	0.070084 
3600.620337  	0.069746 
3602.051996  	0.069686 
3603.483654  	0.070171 
3604.915312  	0.070266 
3606.346970  	0.069854 
3607.778628  	0.069562 
3609.210287  	0.069056 
3610.641945  	0.069018 
3612.073603  	0.070016 
3613.505261  	0.070349 
3614.936919  	0.069543 
3616.368578  	0.069523 
3617.800236  	0.070143 
3619.231894  	0.070196 
3620.663552  	0.069222 
3622.095210  	0.068822 
3623.526868  	0.069127 
3624.958527  	0.069101 
3626.390185  	0.069849 
3627.821843  	0.071624 
3629.253501  	0.070927 
3630.685159  	0.068720 
3632.116818  	0.069303 
3633.548476  	0.069295 
3634.980134  	0.068893 
3636.411792  	0.069093 
3637.843450  	0.068643 
3639.275109  	0.068319 
3640.706767  	0.068636 
3642.138425  	0.068414 
3643.570083  	0.068228 
3645.001741  	0.068582 
3646.433399  	0.068947 
3647.865058  	0.069452 
3649.296716  	0.069728 
3650.728374  	0.068829 
3652.160032  	0.067639 
3653.591690  	0.067803 
3655.023349  	0.068370 
3656.455007  	0.068223 
3657.886665  	0.068017 
3659.318323  	0.068348 
3660.749981  	0.068198 
3662.181639  	0.067900 
3663.613298  	0.068040 
3665.044956  	0.068313 
3666.476614  	0.068705 
3667.908272  	0.069084 
3669.339930  	0.069038 
3670.771589  	0.068506 
3672.203247  	0.068719 
3673.634905  	0.069188 
3675.066563  	0.068029 
3676.498221  	0.066167 
3677.929880  	0.067667 
3679.361538  	0.068027 
3680.793196  	0.067593 
3682.224854  	0.067864 
3683.656512  	0.067683 
3685.088170  	0.068077 
3686.519829  	0.069429 
3687.951487  	0.069065 
3689.383145  	0.067371 
3690.814803  	0.067338 
3692.246461  	0.066950 
3693.678120  	0.066849 
3695.109778  	0.067455 
3696.541436  	0.067454 
3697.973094  	0.067626 
3699.404752  	0.068475 
3700.836411  	0.068676 
3702.268069  	0.067709 
3703.699727  	0.066947 
3705.131385  	0.067200 
3706.563043  	0.067880 
3707.994701  	0.068471 
3709.426360  	0.068861 
3710.858018  	0.068775 
3712.289676  	0.067648 
3713.721334  	0.066450 
3715.152992  	0.066542 
3716.584651  	0.067183 
3718.016309  	0.067522 
3719.447967  	0.067771 
3720.879625  	0.068108 
3722.311283  	0.068018 
3723.742941  	0.067863 
3725.174600  	0.068010 
3726.606258  	0.067795 
3728.037916  	0.067413 
3729.469574  	0.067397 
3730.901232  	0.067153 
3732.332891  	0.066906 
3733.764549  	0.068065 
3735.196207  	0.068952 
3736.627865  	0.067151 
3738.059523  	0.066134 
3739.491182  	0.066518 
3740.922840  	0.066585 
3742.354498  	0.067572 
3743.786156  	0.068609 
3745.217814  	0.066385 
3746.649472  	0.066223 
3748.081131  	0.067485 
3749.512789  	0.066936 
3750.944447  	0.066544 
3752.376105  	0.066777 
3753.807763  	0.065969 
3755.239422  	0.066257 
3756.671080  	0.066600 
3758.102738  	0.066461 
3759.534396  	0.066568 
3760.966054  	0.066066 
3762.397712  	0.066078 
3763.829371  	0.066782 
3765.261029  	0.066509 
3766.692687  	0.066352 
3768.124345  	0.067000 
3769.556003  	0.066584 
3770.987662  	0.065701 
3772.419320  	0.065727 
3773.850978  	0.065894 
3775.282636  	0.066002 
3776.714294  	0.065928 
3778.145953  	0.065862 
3779.577611  	0.065764 
3781.009269  	0.065396 
3782.440927  	0.065636 
3783.872585  	0.066189 
3785.304243  	0.066280 
3786.735902  	0.066130 
3788.167560  	0.065945 
3789.599218  	0.065866 
3791.030876  	0.066023 
3792.462534  	0.065866 
3793.894193  	0.065582 
3795.325851  	0.065725 
3796.757509  	0.066262 
3798.189167  	0.067002 
3799.620825  	0.067435 
3801.052484  	0.067095 
3802.484142  	0.065830 
3803.915800  	0.065919 
3805.347458  	0.066544 
3806.779116  	0.065930 
3808.210774  	0.064691 
3809.642433  	0.065251 
3811.074091  	0.065746 
3812.505749  	0.065706 
3813.937407  	0.066105 
3815.369065  	0.066198 
3816.800724  	0.065237 
3818.232382  	0.065820 
3819.664040  	0.067098 
3821.095698  	0.066661 
3822.527356  	0.064813 
3823.959014  	0.065330 
3825.390673  	0.065680 
3826.822331  	0.064845 
3828.253989  	0.064957 
3829.685647  	0.065935 
3831.117305  	0.065995 
3832.548964  	0.065625 
3833.980622  	0.065888 
3835.412280  	0.066128 
3836.843938  	0.066067 
3838.275596  	0.065997 
3839.707255  	0.065648 
3841.138913  	0.065254 
3842.570571  	0.065343 
3844.002229  	0.065304 
3845.433887  	0.065035 
3846.865545  	0.065388 
3848.297204  	0.065652 
3849.728862  	0.065578 
3851.160520  	0.066436 
3852.592178  	0.067459 
3854.023836  	0.066328 
3855.455495  	0.065500 
3856.887153  	0.065298 
3858.318811  	0.064763 
3859.750469  	0.064799 
3861.182127  	0.064893 
3862.613786  	0.065316 
3864.045444  	0.066024 
3865.477102  	0.065430 
3866.908760  	0.065427 
3868.340418  	0.066336 
3869.772076  	0.065427 
3871.203735  	0.064009 
3872.635393  	0.064989 
3874.067051  	0.065069 
3875.498709  	0.064354 
3876.930367  	0.064803 
3878.362026  	0.065402 
3879.793684  	0.065368 
3881.225342  	0.064751 
3882.657000  	0.064764 
3884.088658  	0.065357 
3885.520316  	0.065245 
3886.951975  	0.064289 
3888.383633  	0.064355 
3889.815291  	0.064827 
3891.246949  	0.064847 
3892.678607  	0.064383 
3894.110266  	0.064144 
3895.541924  	0.064335 
3896.973582  	0.064824 
3898.405240  	0.064970 
3899.836898  	0.064374 
3901.268557  	0.064291 
3902.700215  	0.065004 
3904.131873  	0.065193 
3905.563531  	0.064887 
3906.995189  	0.064519 
3908.426847  	0.064062 
3909.858506  	0.063899 
3911.290164  	0.063770 
3912.721822  	0.063496 
3914.153480  	0.063748 
3915.585138  	0.064218 
3917.016797  	0.064506 
3918.448455  	0.064721 
3919.880113  	0.064475 
3921.311771  	0.064174 
3922.743429  	0.064343 
3924.175088  	0.064263 
3925.606746  	0.064016 
3927.038404  	0.064135 
3928.470062  	0.064021 
3929.901720  	0.063981 
3931.333378  	0.064470 
3932.765037  	0.064422 
3934.196695  	0.063805 
3935.628353  	0.063646 
3937.060011  	0.063559 
3938.491669  	0.063536 
3939.923328  	0.064060 
3941.354986  	0.064412 
3942.786644  	0.064136 
3944.218302  	0.063894 
3945.649960  	0.063854 
3947.081618  	0.063657 
3948.513277  	0.063451 
3949.944935  	0.063503 
3951.376593  	0.063589 
3952.808251  	0.063541 
3954.239909  	0.063702 
3955.671568  	0.063878 
3957.103226  	0.063326 
3958.534884  	0.062646 
3959.966542  	0.062881 
3961.398200  	0.063407 
3962.829859  	0.063424 
3964.261517  	0.063357 
3965.693175  	0.063649 
3967.124833  	0.064018 
3968.556491  	0.064122 
3969.988149  	0.063984 
3971.419808  	0.063550 
3972.851466  	0.063002 
3974.283124  	0.063086 
3975.714782  	0.063563 
3977.146440  	0.063493 
3978.578099  	0.063166 
3980.009757  	0.063081 
3981.441415  	0.063178 
3982.873073  	0.063544 
3984.304731  	0.063757 
3985.736389  	0.063369 
3987.168048  	0.063084 
3988.599706  	0.063415 
3990.031364  	0.063628 
3991.463022  	0.063276 
3992.894680  	0.063015 
3994.326339  	0.063086 
3995.757997  	0.062953 
3997.189655  	0.062663 
3998.621313  	0.062799 
4000.052971  	0.063265 