##TITLE=No Description
##DATA TYPE=INFRARED SPECTRUM
##XUNITS=1/CM
##YUNITS=Abs
399.432634  	-0.020044 
400.864292  	-0.007958 
402.295950  	-0.014756 
403.727608  	-0.008108 
405.159267  	0.009634 
406.590925  	-0.006875 
408.022583  	-0.023287 
409.454241  	-0.008563 
410.885899  	0.003509 
412.317558  	-0.004562 
413.749216  	-0.022282 
415.180874  	-0.024997 
416.612532  	-0.011366 
418.044190  	-0.001695 
419.475848  	-0.009358 
420.907507  	-0.021667 
422.339165  	-0.023704 
423.770823  	-0.016594 
425.202481  	-0.018285 
426.634139  	-0.025891 
428.065798  	-0.026923 
429.497456  	-0.033903 
430.929114  	-0.039880 
432.360772  	-0.033876 
433.792430  	-0.034476 
435.224089  	-0.037918 
436.655747  	-0.029701 
438.087405  	-0.024234 
439.519063  	-0.027458 
440.950721  	-0.029334 
442.382379  	-0.022885 
443.814038  	-0.013391 
445.245696  	-0.018775 
446.677354  	-0.030138 
448.109012  	-0.029183 
449.540670  	-0.025887 
450.972329  	-0.026957 
452.403987  	-0.026060 
453.835645  	-0.026421 
455.267303  	-0.024201 
456.698961  	-0.018686 
458.130619  	-0.021186 
459.562278  	-0.024445 
460.993936  	-0.022223 
462.425594  	-0.024744 
463.857252  	-0.029538 
465.288910  	-0.029268 
466.720569  	-0.027413 
468.152227  	-0.026170 
469.583885  	-0.025779 
471.015543  	-0.027651 
472.447201  	-0.030738 
473.878860  	-0.031459 
475.310518  	-0.031570 
476.742176  	-0.032044 
478.173834  	-0.030124 
479.605492  	-0.028122 
481.037150  	-0.027395 
482.468809  	-0.026716 
483.900467  	-0.027964 
485.332125  	-0.026991 
486.763783  	-0.022074 
488.195441  	-0.023819 
489.627100  	-0.029272 
491.058758  	-0.026490 
492.490416  	-0.022806 
493.922074  	-0.026305 
495.353732  	-0.028849 
496.785391  	-0.027812 
498.217049  	-0.028045 
499.648707  	-0.029847 
501.080365  	-0.029964 
502.512023  	-0.028902 
503.943681  	-0.029939 
505.375340  	-0.030223 
506.806998  	-0.027493 
508.238656  	-0.026687 
509.670314  	-0.029538 
511.101972  	-0.031371 
512.533631  	-0.029606 
513.965289  	-0.027657 
515.396947  	-0.029199 
516.828605  	-0.031355 
518.260263  	-0.030849 
519.691921  	-0.029618 
521.123580  	-0.028311 
522.555238  	-0.027972 
523.986896  	-0.029199 
525.418554  	-0.028766 
526.850212  	-0.027566 
528.281871  	-0.028926 
529.713529  	-0.030273 
531.145187  	-0.028853 
532.576845  	-0.025724 
534.008503  	-0.024765 
535.440162  	-0.026817 
536.871820  	-0.027817 
538.303478  	-0.027594 
539.735136  	-0.028132 
541.166794  	-0.028320 
542.598452  	-0.028612 
544.030111  	-0.028849 
545.461769  	-0.028800 
546.893427  	-0.030389 
548.325085  	-0.030956 
549.756743  	-0.029673 
551.188402  	-0.030251 
552.620060  	-0.030756 
554.051718  	-0.030204 
555.483376  	-0.031360 
556.915034  	-0.032404 
558.346692  	-0.032329 
559.778351  	-0.032193 
561.210009  	-0.031393 
562.641667  	-0.031220 
564.073325  	-0.031996 
565.504983  	-0.032092 
566.936642  	-0.031867 
568.368300  	-0.031534 
569.799958  	-0.031424 
571.231616  	-0.031732 
572.663274  	-0.031594 
574.094933  	-0.031934 
575.526591  	-0.032532 
576.958249  	-0.031975 
578.389907  	-0.031666 
579.821565  	-0.031484 
581.253223  	-0.030995 
582.684882  	-0.031628 
584.116540  	-0.031719 
585.548198  	-0.030892 
586.979856  	-0.031523 
588.411514  	-0.031778 
589.843173  	-0.031002 
591.274831  	-0.032078 
592.706489  	-0.032985 
594.138147  	-0.031403 
595.569805  	-0.031139 
597.001464  	-0.033111 
598.433122  	-0.033528 
599.864780  	-0.032353 
601.296438  	-0.032033 
602.728096  	-0.032118 
604.159754  	-0.032122 
605.591413  	-0.032565 
607.023071  	-0.032553 
608.454729  	-0.032146 
609.886387  	-0.032496 
611.318045  	-0.033123 
612.749704  	-0.033347 
614.181362  	-0.033145 
615.613020  	-0.032727 
617.044678  	-0.033054 
618.476336  	-0.033768 
619.907994  	-0.033307 
621.339653  	-0.032381 
622.771311  	-0.032322 
624.202969  	-0.032574 
625.634627  	-0.032665 
627.066285  	-0.032812 
628.497944  	-0.033073 
629.929602  	-0.033364 
631.361260  	-0.033039 
632.792918  	-0.032202 
634.224576  	-0.032450 
635.656235  	-0.033575 
637.087893  	-0.033772 
638.519551  	-0.033209 
639.951209  	-0.033033 
641.382867  	-0.033514 
642.814525  	-0.033948 
644.246184  	-0.033443 
645.677842  	-0.032686 
647.109500  	-0.032325 
648.541158  	-0.032139 
649.972816  	-0.033192 
651.404475  	-0.034500 
652.836133  	-0.033522 
654.267791  	-0.032375 
655.699449  	-0.033234 
657.131107  	-0.034225 
658.562766  	-0.034339 
659.994424  	-0.033754 
661.426082  	-0.033170 
662.857740  	-0.033662 
664.289398  	-0.034047 
665.721056  	-0.033837 
667.152715  	-0.034556 
668.584373  	-0.035457 
670.016031  	-0.034756 
671.447689  	-0.034105 
672.879347  	-0.033048 
674.311006  	-0.032664 
675.742664  	-0.033314 
677.174322  	-0.033534 
678.605980  	-0.033550 
680.037638  	-0.033974 
681.469296  	-0.034332 
682.900955  	-0.034184 
684.332613  	-0.033572 
685.764271  	-0.033264 
687.195929  	-0.033005 
688.627587  	-0.032298 
690.059246  	-0.032539 
691.490904  	-0.033516 
692.922562  	-0.033730 
694.354220  	-0.033464 
695.785878  	-0.033150 
697.217537  	-0.033306 
698.649195  	-0.033986 
700.080853  	-0.033726 
701.512511  	-0.033228 
702.944169  	-0.033812 
704.375827  	-0.033894 
705.807486  	-0.033250 
707.239144  	-0.033507 
708.670802  	-0.034073 
710.102460  	-0.033938 
711.534118  	-0.033862 
712.965777  	-0.034428 
714.397435  	-0.034642 
715.829093  	-0.033947 
717.260751  	-0.033725 
718.692409  	-0.034222 
720.124067  	-0.034011 
721.555726  	-0.033571 
722.987384  	-0.033800 
724.419042  	-0.033902 
725.850700  	-0.033777 
727.282358  	-0.033770 
728.714017  	-0.033644 
730.145675  	-0.033806 
731.577333  	-0.034249 
733.008991  	-0.034161 
734.440649  	-0.033986 
735.872308  	-0.034343 
737.303966  	-0.034478 
738.735624  	-0.034055 
740.167282  	-0.033706 
741.598940  	-0.033793 
743.030598  	-0.034087 
744.462257  	-0.034157 
745.893915  	-0.034309 
747.325573  	-0.034847 
748.757231  	-0.034783 
750.188889  	-0.034232 
751.620548  	-0.034583 
753.052206  	-0.035166 
754.483864  	-0.035008 
755.915522  	-0.034632 
757.347180  	-0.033977 
758.778839  	-0.033350 
760.210497  	-0.033488 
761.642155  	-0.033652 
763.073813  	-0.033579 
764.505471  	-0.033714 
765.937129  	-0.033335 
767.368788  	-0.032492 
768.800446  	-0.032219 
770.232104  	-0.032267 
771.663762  	-0.032101 
773.095420  	-0.032185 
774.527079  	-0.032697 
775.958737  	-0.032984 
777.390395  	-0.032839 
778.822053  	-0.032599 
780.253711  	-0.032087 
781.685369  	-0.031422 
783.117028  	-0.031474 
784.548686  	-0.031986 
785.980344  	-0.031728 
787.412002  	-0.030711 
788.843660  	-0.029952 
790.275319  	-0.029622 
791.706977  	-0.029135 
793.138635  	-0.028282 
794.570293  	-0.027194 
796.001951  	-0.026425 
797.433610  	-0.026466 
798.865268  	-0.026507 
800.296926  	-0.025903 
801.728584  	-0.024941 
803.160242  	-0.023260 
804.591900  	-0.020969 
806.023559  	-0.018610 
807.455217  	-0.015828 
808.886875  	-0.013782 
810.318533  	-0.014255 
811.750191  	-0.016649 
813.181850  	-0.019621 
814.613508  	-0.022328 
816.045166  	-0.024386 
817.476824  	-0.025914 
818.908482  	-0.026716 
820.340141  	-0.027121 
821.771799  	-0.027689 
823.203457  	-0.027688 
824.635115  	-0.027142 
826.066773  	-0.026826 
827.498431  	-0.026477 
828.930090  	-0.026064 
830.361748  	-0.025434 
831.793406  	-0.024432 
833.225064  	-0.023684 
834.656722  	-0.022526 
836.088381  	-0.020368 
837.520039  	-0.016586 
838.951697  	-0.007972 
840.383355  	0.003050 
841.815013  	0.005792 
843.246671  	-0.002414 
844.678330  	-0.012492 
846.109988  	-0.018720 
847.541646  	-0.021895 
848.973304  	-0.023726 
850.404962  	-0.025015 
851.836621  	-0.025838 
853.268279  	-0.026166 
854.699937  	-0.026210 
856.131595  	-0.026452 
857.563253  	-0.027146 
858.994912  	-0.027592 
860.426570  	-0.027567 
861.858228  	-0.027862 
863.289886  	-0.028384 
864.721544  	-0.028645 
866.153202  	-0.028849 
867.584861  	-0.029040 
869.016519  	-0.029242 
870.448177  	-0.029474 
871.879835  	-0.029426 
873.311493  	-0.029353 
874.743152  	-0.029611 
876.174810  	-0.029834 
877.606468  	-0.029795 
879.038126  	-0.029655 
880.469784  	-0.029643 
881.901443  	-0.029826 
883.333101  	-0.029864 
884.764759  	-0.029744 
886.196417  	-0.029665 
887.628075  	-0.029403 
889.059733  	-0.029024 
890.491392  	-0.028618 
891.923050  	-0.027781 
893.354708  	-0.026342 
894.786366  	-0.024139 
896.218024  	-0.021141 
897.649683  	-0.018221 
899.081341  	-0.016451 
900.512999  	-0.016803 
901.944657  	-0.019494 
903.376315  	-0.023087 
904.807973  	-0.025989 
906.239632  	-0.027707 
907.671290  	-0.028714 
909.102948  	-0.029640 
910.534606  	-0.030415 
911.966264  	-0.030781 
913.397923  	-0.030860 
914.829581  	-0.030967 
916.261239  	-0.031454 
917.692897  	-0.031925 
919.124555  	-0.031840 
920.556214  	-0.031584 
921.987872  	-0.031288 
923.419530  	-0.031151 
924.851188  	-0.031708 
926.282846  	-0.032042 
927.714504  	-0.031648 
929.146163  	-0.031571 
930.577821  	-0.031698 
932.009479  	-0.031600 
933.441137  	-0.031604 
934.872795  	-0.031290 
936.304454  	-0.030398 
937.736112  	-0.029299 
939.167770  	-0.028290 
940.599428  	-0.027944 
942.031086  	-0.028245 
943.462744  	-0.028616 
944.894403  	-0.028986 
946.326061  	-0.029334 
947.757719  	-0.029641 
949.189377  	-0.029913 
950.621035  	-0.029919 
952.052694  	-0.029798 
953.484352  	-0.029672 
954.916010  	-0.029376 
956.347668  	-0.029003 
957.779326  	-0.028486 
959.210985  	-0.027869 
960.642643  	-0.027312 
962.074301  	-0.026277 
963.505959  	-0.024581 
964.937617  	-0.022598 
966.369275  	-0.019826 
967.800934  	-0.015154 
969.232592  	-0.007613 
970.664250  	0.002400 
972.095908  	0.011116 
973.527566  	0.013379 
974.959225  	0.008550 
976.390883  	0.000686 
977.822541  	-0.007320 
979.254199  	-0.014142 
980.685857  	-0.018872 
982.117516  	-0.021938 
983.549174  	-0.023948 
984.980832  	-0.024949 
986.412490  	-0.025182 
987.844148  	-0.024663 
989.275806  	-0.023542 
990.707465  	-0.021960 
992.139123  	-0.018886 
993.570781  	-0.013707 
995.002439  	-0.006702 
996.434097  	0.000951 
997.865756  	0.004833 
999.297414  	0.001550 
1000.729072  	-0.006191 
1002.160730  	-0.013760 
1003.592388  	-0.019018 
1005.024046  	-0.022125 
1006.455705  	-0.024232 
1007.887363  	-0.025824 
1009.319021  	-0.026772 
1010.750679  	-0.027420 
1012.182337  	-0.028042 
1013.613996  	-0.028641 
1015.045654  	-0.029123 
1016.477312  	-0.029378 
1017.908970  	-0.029704 
1019.340628  	-0.030170 
1020.772287  	-0.030416 
1022.203945  	-0.030505 
1023.635603  	-0.030701 
1025.067261  	-0.030811 
1026.498919  	-0.030546 
1027.930577  	-0.030372 
1029.362236  	-0.030700 
1030.793894  	-0.030837 
1032.225552  	-0.030631 
1033.657210  	-0.030568 
1035.088868  	-0.030340 
1036.520527  	-0.030082 
1037.952185  	-0.030128 
1039.383843  	-0.030046 
1040.815501  	-0.029952 
1042.247159  	-0.029721 
1043.678818  	-0.028907 
1045.110476  	-0.028523 
1046.542134  	-0.029039 
1047.973792  	-0.029393 
1049.405450  	-0.029449 
1050.837108  	-0.029940 
1052.268767  	-0.030721 
1053.700425  	-0.031103 
1055.132083  	-0.031331 
1056.563741  	-0.031903 
1057.995399  	-0.032151 
1059.427058  	-0.031927 
1060.858716  	-0.031983 
1062.290374  	-0.032096 
1063.722032  	-0.032114 
1065.153690  	-0.032229 
1066.585348  	-0.032095 
1068.017007  	-0.032019 
1069.448665  	-0.032237 
1070.880323  	-0.032229 
1072.311981  	-0.032198 
1073.743639  	-0.032409 
1075.175298  	-0.032444 
1076.606956  	-0.032194 
1078.038614  	-0.032014 
1079.470272  	-0.032077 
1080.901930  	-0.031892 
1082.333589  	-0.031374 
1083.765247  	-0.031288 
1085.196905  	-0.031586 
1086.628563  	-0.031692 
1088.060221  	-0.031604 
1089.491879  	-0.031501 
1090.923538  	-0.031478 
1092.355196  	-0.031229 
1093.786854  	-0.030653 
1095.218512  	-0.030230 
1096.650170  	-0.029711 
1098.081829  	-0.028780 
1099.513487  	-0.027791 
1100.945145  	-0.026897 
1102.376803  	-0.026490 
1103.808461  	-0.026824 
1105.240120  	-0.027611 
1106.671778  	-0.028711 
1108.103436  	-0.029692 
1109.535094  	-0.030245 
1110.966752  	-0.030696 
1112.398410  	-0.031014 
1113.830069  	-0.031258 
1115.261727  	-0.031637 
1116.693385  	-0.031950 
1118.125043  	-0.032306 
1119.556701  	-0.032503 
1120.988360  	-0.032280 
1122.420018  	-0.032356 
1123.851676  	-0.032665 
1125.283334  	-0.032581 
1126.714992  	-0.032450 
1128.146650  	-0.032399 
1129.578309  	-0.032229 
1131.009967  	-0.032053 
1132.441625  	-0.031875 
1133.873283  	-0.031632 
1135.304941  	-0.031272 
1136.736600  	-0.030911 
1138.168258  	-0.030456 
1139.599916  	-0.029494 
1141.031574  	-0.028393 
1142.463232  	-0.027496 
1143.894891  	-0.026440 
1145.326549  	-0.025258 
1146.758207  	-0.023853 
1148.189865  	-0.022037 
1149.621523  	-0.020235 
1151.053181  	-0.018693 
1152.484840  	-0.017590 
1153.916498  	-0.017031 
1155.348156  	-0.016688 
1156.779814  	-0.016365 
1158.211472  	-0.015846 
1159.643131  	-0.014884 
1161.074789  	-0.013591 
1162.506447  	-0.011740 
1163.938105  	-0.008951 
1165.369763  	-0.005747 
1166.801421  	-0.003384 
1168.233080  	-0.002963 
1169.664738  	-0.005212 
1171.096396  	-0.010082 
1172.528054  	-0.015801 
1173.959712  	-0.020652 
1175.391371  	-0.024292 
1176.823029  	-0.026983 
1178.254687  	-0.028954 
1179.686345  	-0.030267 
1181.118003  	-0.031093 
1182.549662  	-0.031743 
1183.981320  	-0.032185 
1185.412978  	-0.032325 
1186.844636  	-0.032477 
1188.276294  	-0.032546 
1189.707952  	-0.032331 
1191.139611  	-0.032303 
1192.571269  	-0.032336 
1194.002927  	-0.032113 
1195.434585  	-0.032146 
1196.866243  	-0.032382 
1198.297902  	-0.032409 
1199.729560  	-0.032330 
1201.161218  	-0.032199 
1202.592876  	-0.032272 
1204.024534  	-0.032515 
1205.456193  	-0.032416 
1206.887851  	-0.032123 
1208.319509  	-0.031826 
1209.751167  	-0.031520 
1211.182825  	-0.031393 
1212.614483  	-0.031073 
1214.046142  	-0.030503 
1215.477800  	-0.030149 
1216.909458  	-0.029860 
1218.341116  	-0.029638 
1219.772774  	-0.029659 
1221.204433  	-0.029786 
1222.636091  	-0.030126 
1224.067749  	-0.030616 
1225.499407  	-0.031084 
1226.931065  	-0.031593 
1228.362723  	-0.031898 
1229.794382  	-0.031992 
1231.226040  	-0.032212 
1232.657698  	-0.032373 
1234.089356  	-0.032320 
1235.521014  	-0.032278 
1236.952673  	-0.032323 
1238.384331  	-0.032337 
1239.815989  	-0.032316 
1241.247647  	-0.032348 
1242.679305  	-0.032222 
1244.110964  	-0.031890 
1245.542622  	-0.031698 
1246.974280  	-0.031507 
1248.405938  	-0.031041 
1249.837596  	-0.030303 
1251.269254  	-0.029241 
1252.700913  	-0.027921 
1254.132571  	-0.026377 
1255.564229  	-0.025379 
1256.995887  	-0.026101 
1258.427545  	-0.027740 
1259.859204  	-0.029078 
1261.290862  	-0.030187 
1262.722520  	-0.030987 
1264.154178  	-0.031471 
1265.585836  	-0.031866 
1267.017495  	-0.032038 
1268.449153  	-0.032213 
1269.880811  	-0.032416 
1271.312469  	-0.032456 
1272.744127  	-0.032591 
1274.175785  	-0.032606 
1275.607444  	-0.032499 
1277.039102  	-0.032610 
1278.470760  	-0.032492 
1279.902418  	-0.032167 
1281.334076  	-0.032050 
1282.765735  	-0.031898 
1284.197393  	-0.031613 
1285.629051  	-0.031220 
1287.060709  	-0.030892 
1288.492367  	-0.030686 
1289.924025  	-0.030102 
1291.355684  	-0.029371 
1292.787342  	-0.028809 
1294.219000  	-0.028116 
1295.650658  	-0.027560 
1297.082316  	-0.027334 
1298.513975  	-0.027369 
1299.945633  	-0.027514 
1301.377291  	-0.026907 
1302.808949  	-0.025546 
1304.240607  	-0.024819 
1305.672266  	-0.025801 
1307.103924  	-0.028174 
1308.535582  	-0.030327 
1309.967240  	-0.031388 
1311.398898  	-0.031852 
1312.830556  	-0.031838 
1314.262215  	-0.031748 
1315.693873  	-0.031821 
1317.125531  	-0.031406 
1318.557189  	-0.030999 
1319.988847  	-0.030873 
1321.420506  	-0.030457 
1322.852164  	-0.029965 
1324.283822  	-0.029097 
1325.715480  	-0.027992 
1327.147138  	-0.027390 
1328.578796  	-0.026833 
1330.010455  	-0.026478 
1331.442113  	-0.026793 
1332.873771  	-0.027455 
1334.305429  	-0.028263 
1335.737087  	-0.028636 
1337.168746  	-0.028513 
1338.600404  	-0.028434 
1340.032062  	-0.028053 
1341.463720  	-0.027815 
1342.895378  	-0.027591 
1344.327037  	-0.026726 
1345.758695  	-0.025935 
1347.190353  	-0.024709 
1348.622011  	-0.022788 
1350.053669  	-0.021156 
1351.485327  	-0.018718 
1352.916986  	-0.015199 
1354.348644  	-0.010477 
1355.780302  	-0.003947 
1357.211960  	0.001626 
1358.643618  	0.004693 
1360.075277  	0.004404 
1361.506935  	0.000840 
1362.938593  	-0.002393 
1364.370251  	-0.004092 
1365.801909  	-0.003744 
1367.233568  	0.001105 
1368.665226  	0.010748 
1370.096884  	0.028604 
1371.528542  	0.055498 
1372.960200  	0.087558 
1374.391858  	0.126431 
1375.823517  	0.146926 
1377.255175  	0.133916 
1378.686833  	0.099129 
1380.118491  	0.059117 
1381.550149  	0.030384 
1382.981808  	0.008328 
1384.413466  	-0.006532 
1385.845124  	-0.015052 
1387.276782  	-0.021529 
1388.708440  	-0.025225 
1390.140098  	-0.027356 
1391.571757  	-0.028532 
1393.003415  	-0.029009 
1394.435073  	-0.029887 
1395.866731  	-0.030509 
1397.298389  	-0.030797 
1398.730048  	-0.030957 
1400.161706  	-0.031198 
1401.593364  	-0.031648 
1403.025022  	-0.031528 
1404.456680  	-0.031596 
1405.888339  	-0.032008 
1407.319997  	-0.031758 
1408.751655  	-0.031680 
1410.183313  	-0.031595 
1411.614971  	-0.031399 
1413.046629  	-0.031467 
1414.478288  	-0.031010 
1415.909946  	-0.030657 
1417.341604  	-0.030453 
1418.773262  	-0.029815 
1420.204920  	-0.030056 
1421.636579  	-0.029568 
1423.068237  	-0.028727 
1424.499895  	-0.028523 
1425.931553  	-0.027468 
1427.363211  	-0.026282 
1428.794870  	-0.024423 
1430.226528  	-0.020768 
1431.658186  	-0.016225 
1433.089844  	-0.008942 
1434.521502  	-0.001666 
1435.953160  	0.002267 
1437.384819  	0.001970 
1438.816477  	0.001121 
1440.248135  	0.002235 
1441.679793  	0.005692 
1443.111451  	0.011333 
1444.543110  	0.020335 
1445.974768  	0.031405 
1447.406426  	0.043787 
1448.838084  	0.057124 
1450.269742  	0.064469 
1451.701400  	0.068979 
1453.133059  	0.071204 
1454.564717  	0.070958 
1455.996375  	0.071778 
1457.428033  	0.069298 
1458.859691  	0.067009 
1460.291350  	0.064563 
1461.723008  	0.058795 
1463.154666  	0.053876 
1464.586324  	0.044803 
1466.017982  	0.031707 
1467.449641  	0.022356 
1468.881299  	0.011566 
1470.312957  	0.002781 
1471.744615  	-0.003826 
1473.176273  	-0.013418 
1474.607931  	-0.017873 
1476.039590  	-0.021063 
1477.471248  	-0.024925 
1478.902906  	-0.026481 
1480.334564  	-0.028073 
1481.766222  	-0.029446 
1483.197881  	-0.030326 
1484.629539  	-0.031355 
1486.061197  	-0.031525 
1487.492855  	-0.032090 
1488.924513  	-0.032844 
1490.356172  	-0.032894 
1491.787830  	-0.034162 
1493.219488  	-0.034640 
1494.651146  	-0.034576 
1496.082804  	-0.035347 
1497.514462  	-0.035496 
1498.946121  	-0.035457 
1500.377779  	-0.035845 
1501.809437  	-0.035939 
1503.241095  	-0.036332 
1504.672753  	-0.036358 
1506.104412  	-0.035662 
1507.536070  	-0.036178 
1508.967728  	-0.036295 
1510.399386  	-0.036578 
1511.831044  	-0.037324 
1513.262702  	-0.037327 
1514.694361  	-0.037057 
1516.126019  	-0.036797 
1517.557677  	-0.036942 
1518.989335  	-0.037410 
1520.420993  	-0.037191 
1521.852652  	-0.037500 
1523.284310  	-0.038001 
1524.715968  	-0.037634 
1526.147626  	-0.037929 
1527.579284  	-0.038224 
1529.010943  	-0.038088 
1530.442601  	-0.038408 
1531.874259  	-0.038201 
1533.305917  	-0.037771 
1534.737575  	-0.038397 
1536.169233  	-0.038495 
1537.600892  	-0.038407 
1539.032550  	-0.038271 
1540.464208  	-0.037886 
1541.895866  	-0.038601 
1543.327524  	-0.038663 
1544.759183  	-0.038800 
1546.190841  	-0.039621 
1547.622499  	-0.039377 
1549.054157  	-0.038935 
1550.485815  	-0.039205 
1551.917473  	-0.039194 
1553.349132  	-0.039039 
1554.780790  	-0.039076 
1556.212448  	-0.038932 
1557.644106  	-0.038602 
1559.075764  	-0.038696 
1560.507423  	-0.040326 
1561.939081  	-0.040228 
1563.370739  	-0.039875 
1564.802397  	-0.040190 
1566.234055  	-0.040318 
1567.665714  	-0.039870 
1569.097372  	-0.039910 
1570.529030  	-0.040262 
1571.960688  	-0.040378 
1573.392346  	-0.040432 
1574.824004  	-0.040248 
1576.255663  	-0.040530 
1577.687321  	-0.040933 
1579.118979  	-0.040703 
1580.550637  	-0.040817 
1581.982295  	-0.040960 
1583.413954  	-0.040782 
1584.845612  	-0.040791 
1586.277270  	-0.040810 
1587.708928  	-0.040792 
1589.140586  	-0.040816 
1590.572245  	-0.040800 
1592.003903  	-0.040975 
1593.435561  	-0.041088 
1594.867219  	-0.041050 
1596.298877  	-0.041102 
1597.730535  	-0.040955 
1599.162194  	-0.040805 
1600.593852  	-0.040781 
1602.025510  	-0.040605 
1603.457168  	-0.040483 
1604.888826  	-0.040346 
1606.320485  	-0.040193 
1607.752143  	-0.040308 
1609.183801  	-0.040414 
1610.615459  	-0.040516 
1612.047117  	-0.040674 
1613.478775  	-0.040483 
1614.910434  	-0.040165 
1616.342092  	-0.039984 
1617.773750  	-0.040158 
1619.205408  	-0.040372 
1620.637066  	-0.040187 
1622.068725  	-0.039970 
1623.500383  	-0.040293 
1624.932041  	-0.040502 
1626.363699  	-0.040382 
1627.795357  	-0.040350 
1629.227016  	-0.040353 
1630.658674  	-0.040298 
1632.090332  	-0.040129 
1633.521990  	-0.039853 
1634.953648  	-0.039672 
1636.385306  	-0.040090 
1637.816965  	-0.040446 
1639.248623  	-0.040365 
1640.680281  	-0.040436 
1642.111939  	-0.040569 
1643.543597  	-0.040233 
1644.975256  	-0.039751 
1646.406914  	-0.039691 
1647.838572  	-0.040181 
1649.270230  	-0.040565 
1650.701888  	-0.040443 
1652.133547  	-0.040034 
1653.565205  	-0.040500 
1654.996863  	-0.040977 
1656.428521  	-0.040858 
1657.860179  	-0.040930 
1659.291837  	-0.041075 
1660.723496  	-0.041111 
1662.155154  	-0.041020 
1663.586812  	-0.041079 
1665.018470  	-0.041183 
1666.450128  	-0.040992 
1667.881787  	-0.040901 
1669.313445  	-0.041179 
1670.745103  	-0.041444 
1672.176761  	-0.041456 
1673.608419  	-0.041030 
1675.040077  	-0.040789 
1676.471736  	-0.041350 
1677.903394  	-0.040978 
1679.335052  	-0.040426 
1680.766710  	-0.040604 
1682.198368  	-0.040357 
1683.630027  	-0.040190 
1685.061685  	-0.041799 
1686.493343  	-0.041500 
1687.925001  	-0.041110 
1689.356659  	-0.041166 
1690.788318  	-0.041066 
1692.219976  	-0.041085 
1693.651634  	-0.040730 
1695.083292  	-0.039969 
1696.514950  	-0.040547 
1697.946608  	-0.040872 
1699.378267  	-0.040432 
1700.809925  	-0.041369 
1702.241583  	-0.041589 
1703.673241  	-0.040969 
1705.104899  	-0.040886 
1706.536558  	-0.041239 
1707.968216  	-0.041131 
1709.399874  	-0.041024 
1710.831532  	-0.041297 
1712.263190  	-0.041341 
1713.694849  	-0.040965 
1715.126507  	-0.040895 
1716.558165  	-0.041109 
1717.989823  	-0.041492 
1719.421481  	-0.042026 
1720.853139  	-0.041967 
1722.284798  	-0.041868 
1723.716456  	-0.041845 
1725.148114  	-0.041625 
1726.579772  	-0.041657 
1728.011430  	-0.041640 
1729.443089  	-0.041239 
1730.874747  	-0.041232 
1732.306405  	-0.041292 
1733.738063  	-0.041198 
1735.169721  	-0.041907 
1736.601379  	-0.041869 
1738.033038  	-0.041675 
1739.464696  	-0.042017 
1740.896354  	-0.041966 
1742.328012  	-0.041544 
1743.759670  	-0.041320 
1745.191329  	-0.041106 
1746.622987  	-0.040998 
1748.054645  	-0.041067 
1749.486303  	-0.041194 
1750.917961  	-0.041437 
1752.349620  	-0.041607 
1753.781278  	-0.041507 
1755.212936  	-0.041456 
1756.644594  	-0.041721 
1758.076252  	-0.041956 
1759.507910  	-0.041722 
1760.939569  	-0.041445 
1762.371227  	-0.041534 
1763.802885  	-0.041824 
1765.234543  	-0.041840 
1766.666201  	-0.041391 
1768.097860  	-0.041097 
1769.529518  	-0.041476 
1770.961176  	-0.041552 
1772.392834  	-0.041583 
1773.824492  	-0.041908 
1775.256150  	-0.041752 
1776.687809  	-0.041756 
1778.119467  	-0.041961 
1779.551125  	-0.041836 
1780.982783  	-0.041913 
1782.414441  	-0.042127 
1783.846100  	-0.041961 
1785.277758  	-0.041754 
1786.709416  	-0.041778 
1788.141074  	-0.041940 
1789.572732  	-0.041864 
1791.004391  	-0.041493 
1792.436049  	-0.041608 
1793.867707  	-0.041840 
1795.299365  	-0.041744 
1796.731023  	-0.041906 
1798.162681  	-0.041979 
1799.594340  	-0.042009 
1801.025998  	-0.042344 
1802.457656  	-0.042194 
1803.889314  	-0.041908 
1805.320972  	-0.042000 
1806.752631  	-0.042066 
1808.184289  	-0.042188 
1809.615947  	-0.042139 
1811.047605  	-0.041603 
1812.479263  	-0.041354 
1813.910922  	-0.041607 
1815.342580  	-0.041884 
1816.774238  	-0.042003 
1818.205896  	-0.041827 
1819.637554  	-0.041813 
1821.069212  	-0.042122 
1822.500871  	-0.042137 
1823.932529  	-0.041806 
1825.364187  	-0.041597 
1826.795845  	-0.041693 
1828.227503  	-0.041714 
1829.659162  	-0.041614 
1831.090820  	-0.041579 
1832.522478  	-0.041506 
1833.954136  	-0.041575 
1835.385794  	-0.041774 
1836.817452  	-0.041571 
1838.249111  	-0.041348 
1839.680769  	-0.041458 
1841.112427  	-0.041330 
1842.544085  	-0.041178 
1843.975743  	-0.041633 
1845.407402  	-0.042057 
1846.839060  	-0.041844 
1848.270718  	-0.041664 
1849.702376  	-0.041720 
1851.134034  	-0.041599 
1852.565693  	-0.041517 
1853.997351  	-0.041811 
1855.429009  	-0.041800 
1856.860667  	-0.041433 
1858.292325  	-0.041367 
1859.723983  	-0.041530 
1861.155642  	-0.041847 
1862.587300  	-0.042084 
1864.018958  	-0.041980 
1865.450616  	-0.041780 
1866.882274  	-0.041256 
1868.313933  	-0.041087 
1869.745591  	-0.041969 
1871.177249  	-0.041829 
1872.608907  	-0.041314 
1874.040565  	-0.041933 
1875.472224  	-0.042273 
1876.903882  	-0.041856 
1878.335540  	-0.041847 
1879.767198  	-0.041952 
1881.198856  	-0.041863 
1882.630514  	-0.041827 
1884.062173  	-0.042019 
1885.493831  	-0.042293 
1886.925489  	-0.041981 
1888.357147  	-0.041552 
1889.788805  	-0.041721 
1891.220464  	-0.042061 
1892.652122  	-0.042174 
1894.083780  	-0.041664 
1895.515438  	-0.040816 
1896.947096  	-0.040874 
1898.378754  	-0.041285 
1899.810413  	-0.041420 
1901.242071  	-0.041540 
1902.673729  	-0.041434 
1904.105387  	-0.041399 
1905.537045  	-0.041625 
1906.968704  	-0.041741 
1908.400362  	-0.041779 
1909.832020  	-0.041535 
1911.263678  	-0.041242 
1912.695336  	-0.041142 
1914.126995  	-0.041007 
1915.558653  	-0.041478 
1916.990311  	-0.042051 
1918.421969  	-0.041602 
1919.853627  	-0.041345 
1921.285285  	-0.041510 
1922.716944  	-0.041621 
1924.148602  	-0.041762 
1925.580260  	-0.040893 
1927.011918  	-0.040050 
1928.443576  	-0.040897 
1929.875235  	-0.041837 
1931.306893  	-0.041757 
1932.738551  	-0.041212 
1934.170209  	-0.040961 
1935.601867  	-0.041858 
1937.033525  	-0.042211 
1938.465184  	-0.041019 
1939.896842  	-0.040568 
1941.328500  	-0.041017 
1942.760158  	-0.041094 
1944.191816  	-0.041235 
1945.623475  	-0.041561 
1947.055133  	-0.041564 
1948.486791  	-0.040773 
1949.918449  	-0.039661 
1951.350107  	-0.039306 
1952.781766  	-0.039718 
1954.213424  	-0.040232 
1955.645082  	-0.040341 
1957.076740  	-0.039915 
1958.508398  	-0.040020 
1959.940056  	-0.039989 
1961.371715  	-0.038601 
1962.803373  	-0.037844 
1964.235031  	-0.038202 
1965.666689  	-0.037191 
1967.098347  	-0.036086 
1968.530006  	-0.037987 
1969.961664  	-0.039637 
1971.393322  	-0.038314 
1972.824980  	-0.037173 
1974.256638  	-0.037779 
1975.688297  	-0.037576 
1977.119955  	-0.036769 
1978.551613  	-0.037548 
1979.983271  	-0.039566 
1981.414929  	-0.040750 
1982.846587  	-0.040098 
1984.278246  	-0.039321 
1985.709904  	-0.039815 
1987.141562  	-0.040221 
1988.573220  	-0.040065 
1990.004878  	-0.039293 
1991.436537  	-0.038279 
1992.868195  	-0.039232 
1994.299853  	-0.040716 
1995.731511  	-0.040374 
1997.163169  	-0.039683 
1998.594827  	-0.039111 
2000.026486  	-0.039073 
2001.458144  	-0.039867 
2002.889802  	-0.039247 
2004.321460  	-0.037799 
2005.753118  	-0.037899 
2007.184777  	-0.037903 
2008.616435  	-0.036499 
2010.048093  	-0.035703 
2011.479751  	-0.036349 
2012.911409  	-0.037440 
2014.343068  	-0.038263 
2015.774726  	-0.037588 
2017.206384  	-0.035520 
2018.638042  	-0.035305 
2020.069700  	-0.037346 
2021.501358  	-0.038587 
2022.933017  	-0.038934 
2024.364675  	-0.039112 
2025.796333  	-0.037629 
2027.227991  	-0.036614 
2028.659649  	-0.037862 
2030.091308  	-0.038530 
2031.522966  	-0.037781 
2032.954624  	-0.038007 
2034.386282  	-0.039721 
2035.817940  	-0.041043 
2037.249599  	-0.040280 
2038.681257  	-0.038512 
2040.112915  	-0.037964 
2041.544573  	-0.038935 
2042.976231  	-0.039949 
2044.407889  	-0.040145 
2045.839548  	-0.039974 
2047.271206  	-0.039781 
2048.702864  	-0.040376 
2050.134522  	-0.041612 
2051.566180  	-0.041213 
2052.997839  	-0.040371 
2054.429497  	-0.041159 
2055.861155  	-0.041406 
2057.292813  	-0.041324 
2058.724471  	-0.042709 
2060.156129  	-0.042947 
2061.587788  	-0.042022 
2063.019446  	-0.042352 
2064.451104  	-0.042885 
2065.882762  	-0.043438 
2067.314420  	-0.044302 
2068.746079  	-0.044161 
2070.177737  	-0.043367 
2071.609395  	-0.042369 
2073.041053  	-0.041832 
2074.472711  	-0.042624 
2075.904370  	-0.043402 
2077.336028  	-0.043263 
2078.767686  	-0.043211 
2080.199344  	-0.043653 
2081.631002  	-0.044044 
2083.062660  	-0.044082 
2084.494319  	-0.044348 
2085.925977  	-0.044355 
2087.357635  	-0.043513 
2088.789293  	-0.043509 
2090.220951  	-0.043948 
2091.652610  	-0.043394 
2093.084268  	-0.043190 
2094.515926  	-0.043263 
2095.947584  	-0.043517 
2097.379242  	-0.044808 
2098.810901  	-0.044640 
2100.242559  	-0.042710 
2101.674217  	-0.041799 
2103.105875  	-0.042144 
2104.537533  	-0.043849 
2105.969191  	-0.045595 
2107.400850  	-0.044755 
2108.832508  	-0.043248 
2110.264166  	-0.043084 
2111.695824  	-0.043337 
2113.127482  	-0.043480 
2114.559141  	-0.043301 
2115.990799  	-0.043361 
2117.422457  	-0.043802 
2118.854115  	-0.043628 
2120.285773  	-0.043436 
2121.717431  	-0.043261 
2123.149090  	-0.042608 
2124.580748  	-0.042487 
2126.012406  	-0.042196 
2127.444064  	-0.041311 
2128.875722  	-0.041447 
2130.307381  	-0.041989 
2131.739039  	-0.041760 
2133.170697  	-0.041234 
2134.602355  	-0.040780 
2136.034013  	-0.040857 
2137.465672  	-0.040703 
2138.897330  	-0.039771 
2140.328988  	-0.039541 
2141.760646  	-0.039966 
2143.192304  	-0.039961 
2144.623962  	-0.039628 
2146.055621  	-0.039662 
2147.487279  	-0.040940 
2148.918937  	-0.041624 
2150.350595  	-0.039785 
2151.782253  	-0.038156 
2153.213912  	-0.038152 
2154.645570  	-0.037935 
2156.077228  	-0.037497 
2157.508886  	-0.038342 
2158.940544  	-0.039459 
2160.372202  	-0.038379 
2161.803861  	-0.037650 
2163.235519  	-0.039772 
2164.667177  	-0.041175 
2166.098835  	-0.040168 
2167.530493  	-0.039991 
2168.962152  	-0.040898 
2170.393810  	-0.040875 
2171.825468  	-0.040009 
2173.257126  	-0.040150 
2174.688784  	-0.041230 
2176.120443  	-0.041025 
2177.552101  	-0.040191 
2178.983759  	-0.040512 
2180.415417  	-0.041293 
2181.847075  	-0.042042 
2183.278733  	-0.041505 
2184.710392  	-0.039838 
2186.142050  	-0.040187 
2187.573708  	-0.041544 
2189.005366  	-0.041451 
2190.437024  	-0.041345 
2191.868683  	-0.041561 
2193.300341  	-0.041514 
2194.731999  	-0.042005 
2196.163657  	-0.042513 
2197.595315  	-0.042418 
2199.026974  	-0.041977 
2200.458632  	-0.041367 
2201.890290  	-0.041617 
2203.321948  	-0.043180 
2204.753606  	-0.043916 
2206.185264  	-0.042533 
2207.616923  	-0.041150 
2209.048581  	-0.041284 
2210.480239  	-0.041813 
2211.911897  	-0.042638 
2213.343555  	-0.043545 
2214.775214  	-0.043345 
2216.206872  	-0.043100 
2217.638530  	-0.043636 
2219.070188  	-0.043627 
2220.501846  	-0.042831 
2221.933504  	-0.042264 
2223.365163  	-0.042578 
2224.796821  	-0.042587 
2226.228479  	-0.041426 
2227.660137  	-0.041408 
2229.091795  	-0.042643 
2230.523454  	-0.043173 
2231.955112  	-0.043949 
2233.386770  	-0.044639 
2234.818428  	-0.044086 
2236.250086  	-0.044053 
2237.681745  	-0.044057 
2239.113403  	-0.042945 
2240.545061  	-0.042537 
2241.976719  	-0.043108 
2243.408377  	-0.043325 
2244.840035  	-0.043300 
2246.271694  	-0.043812 
2247.703352  	-0.044415 
2249.135010  	-0.043781 
2250.566668  	-0.043033 
2251.998326  	-0.043576 
2253.429985  	-0.043815 
2254.861643  	-0.043606 
2256.293301  	-0.044013 
2257.724959  	-0.044131 
2259.156617  	-0.043974 
2260.588276  	-0.044080 
2262.019934  	-0.044022 
2263.451592  	-0.043798 
2264.883250  	-0.043308 
2266.314908  	-0.043111 
2267.746566  	-0.043798 
2269.178225  	-0.044246 
2270.609883  	-0.044026 
2272.041541  	-0.043824 
2273.473199  	-0.044108 
2274.904857  	-0.045088 
2276.336516  	-0.045591 
2277.768174  	-0.045064 
2279.199832  	-0.044863 
2280.631490  	-0.044978 
2282.063148  	-0.044734 
2283.494806  	-0.044709 
2284.926465  	-0.045045 
2286.358123  	-0.045115 
2287.789781  	-0.044900 
2289.221439  	-0.045159 
2290.653097  	-0.045796 
2292.084756  	-0.045750 
2293.516414  	-0.045394 
2294.948072  	-0.045527 
2296.379730  	-0.045542 
2297.811388  	-0.045382 
2299.243047  	-0.045563 
2300.674705  	-0.045637 
2302.106363  	-0.045286 
2303.538021  	-0.045011 
2304.969679  	-0.045215 
2306.401337  	-0.045389 
2307.832996  	-0.045100 
2309.264654  	-0.045122 
2310.696312  	-0.045495 
2312.127970  	-0.045252 
2313.559628  	-0.044973 
2314.991287  	-0.045468 
2316.422945  	-0.045861 
2317.854603  	-0.045517 
2319.286261  	-0.044980 
2320.717919  	-0.044877 
2322.149577  	-0.045205 
2323.581236  	-0.045634 
2325.012894  	-0.045865 
2326.444552  	-0.045589 
2327.876210  	-0.044933 
2329.307868  	-0.044524 
2330.739527  	-0.044623 
2332.171185  	-0.044901 
2333.602843  	-0.045018 
2335.034501  	-0.044956 
2336.466159  	-0.044778 
2337.897818  	-0.044519 
2339.329476  	-0.044531 
2340.761134  	-0.044630 
2342.192792  	-0.044283 
2343.624450  	-0.044198 
2345.056108  	-0.044695 
2346.487767  	-0.045046 
2347.919425  	-0.045324 
2349.351083  	-0.045357 
2350.782741  	-0.044750 
2352.214399  	-0.044415 
2353.646058  	-0.044984 
2355.077716  	-0.044999 
2356.509374  	-0.044342 
2357.941032  	-0.044480 
2359.372690  	-0.045040 
2360.804349  	-0.044973 
2362.236007  	-0.044867 
2363.667665  	-0.045310 
2365.099323  	-0.045571 
2366.530981  	-0.045271 
2367.962639  	-0.044715 
2369.394298  	-0.044343 
2370.825956  	-0.044622 
2372.257614  	-0.045032 
2373.689272  	-0.045002 
2375.120930  	-0.044875 
2376.552589  	-0.044566 
2377.984247  	-0.044262 
2379.415905  	-0.044614 
2380.847563  	-0.045061 
2382.279221  	-0.045136 
2383.710879  	-0.045301 
2385.142538  	-0.045420 
2386.574196  	-0.045302 
2388.005854  	-0.045174 
2389.437512  	-0.044931 
2390.869170  	-0.044871 
2392.300829  	-0.045299 
2393.732487  	-0.045472 
2395.164145  	-0.045188 
2396.595803  	-0.045112 
2398.027461  	-0.045192 
2399.459120  	-0.045244 
2400.890778  	-0.045382 
2402.322436  	-0.045214 
2403.754094  	-0.044762 
2405.185752  	-0.044661 
2406.617410  	-0.044811 
2408.049069  	-0.044856 
2409.480727  	-0.044783 
2410.912385  	-0.044636 
2412.344043  	-0.044733 
2413.775701  	-0.044943 
2415.207360  	-0.044824 
2416.639018  	-0.044828 
2418.070676  	-0.045146 
2419.502334  	-0.045304 
2420.933992  	-0.045322 
2422.365651  	-0.045126 
2423.797309  	-0.044807 
2425.228967  	-0.044878 
2426.660625  	-0.045050 
2428.092283  	-0.045077 
2429.523941  	-0.045089 
2430.955600  	-0.044757 
2432.387258  	-0.044550 
2433.818916  	-0.045106 
2435.250574  	-0.045597 
2436.682232  	-0.045460 
2438.113891  	-0.045207 
2439.545549  	-0.045132 
2440.977207  	-0.045174 
2442.408865  	-0.045271 
2443.840523  	-0.045359 
2445.272181  	-0.045299 
2446.703840  	-0.045158 
2448.135498  	-0.045275 
2449.567156  	-0.045569 
2450.998814  	-0.045750 
2452.430472  	-0.045833 
2453.862131  	-0.045876 
2455.293789  	-0.045965 
2456.725447  	-0.046006 
2458.157105  	-0.045835 
2459.588763  	-0.045653 
2461.020422  	-0.045612 
2462.452080  	-0.045829 
2463.883738  	-0.046207 
2465.315396  	-0.046126 
2466.747054  	-0.045749 
2468.178712  	-0.045718 
2469.610371  	-0.045746 
2471.042029  	-0.045668 
2472.473687  	-0.045820 
2473.905345  	-0.046010 
2475.337003  	-0.045866 
2476.768662  	-0.045581 
2478.200320  	-0.045526 
2479.631978  	-0.045481 
2481.063636  	-0.045411 
2482.495294  	-0.045733 
2483.926953  	-0.045795 
2485.358611  	-0.045297 
2486.790269  	-0.045373 
2488.221927  	-0.045854 
2489.653585  	-0.045964 
2491.085243  	-0.046074 
2492.516902  	-0.045982 
2493.948560  	-0.045575 
2495.380218  	-0.045473 
2496.811876  	-0.045498 
2498.243534  	-0.045600 
2499.675193  	-0.046026 
2501.106851  	-0.046252 
2502.538509  	-0.046112 
2503.970167  	-0.045934 
2505.401825  	-0.045734 
2506.833483  	-0.045714 
2508.265142  	-0.046079 
2509.696800  	-0.046358 
2511.128458  	-0.046109 
2512.560116  	-0.045851 
2513.991774  	-0.046068 
2515.423433  	-0.046183 
2516.855091  	-0.045816 
2518.286749  	-0.045456 
2519.718407  	-0.045519 
2521.150065  	-0.045860 
2522.581724  	-0.045990 
2524.013382  	-0.045860 
2525.445040  	-0.045705 
2526.876698  	-0.045616 
2528.308356  	-0.045959 
2529.740014  	-0.046334 
2531.171673  	-0.046043 
2532.603331  	-0.045867 
2534.034989  	-0.045944 
2535.466647  	-0.045698 
2536.898305  	-0.045888 
2538.329964  	-0.046217 
2539.761622  	-0.045785 
2541.193280  	-0.045526 
2542.624938  	-0.045685 
2544.056596  	-0.045618 
2545.488254  	-0.045638 
2546.919913  	-0.045785 
2548.351571  	-0.045739 
2549.783229  	-0.045521 
2551.214887  	-0.045435 
2552.646545  	-0.045794 
2554.078204  	-0.046007 
2555.509862  	-0.045665 
2556.941520  	-0.045387 
2558.373178  	-0.045226 
2559.804836  	-0.045029 
2561.236495  	-0.045070 
2562.668153  	-0.045295 
2564.099811  	-0.045520 
2565.531469  	-0.045495 
2566.963127  	-0.045291 
2568.394785  	-0.045300 
2569.826444  	-0.045247 
2571.258102  	-0.045112 
2572.689760  	-0.045207 
2574.121418  	-0.045057 
2575.553076  	-0.044665 
2576.984735  	-0.044533 
2578.416393  	-0.044561 
2579.848051  	-0.044690 
2581.279709  	-0.044703 
2582.711367  	-0.044488 
2584.143026  	-0.044667 
2585.574684  	-0.044991 
2587.006342  	-0.044700 
2588.438000  	-0.044411 
2589.869658  	-0.044770 
2591.301316  	-0.045258 
2592.732975  	-0.045449 
2594.164633  	-0.045519 
2595.596291  	-0.045615 
2597.027949  	-0.045679 
2598.459607  	-0.045803 
2599.891266  	-0.046123 
2601.322924  	-0.046374 
2602.754582  	-0.046155 
2604.186240  	-0.045590 
2605.617898  	-0.045259 
2607.049556  	-0.045281 
2608.481215  	-0.045195 
2609.912873  	-0.045017 
2611.344531  	-0.045138 
2612.776189  	-0.045318 
2614.207847  	-0.045292 
2615.639506  	-0.045364 
2617.071164  	-0.045380 
2618.502822  	-0.045011 
2619.934480  	-0.044799 
2621.366138  	-0.044990 
2622.797797  	-0.045164 
2624.229455  	-0.045453 
2625.661113  	-0.045747 
2627.092771  	-0.045713 
2628.524429  	-0.045822 
2629.956087  	-0.045961 
2631.387746  	-0.045780 
2632.819404  	-0.045949 
2634.251062  	-0.046269 
2635.682720  	-0.046138 
2637.114378  	-0.046040 
2638.546037  	-0.045887 
2639.977695  	-0.045541 
2641.409353  	-0.045634 
2642.841011  	-0.045860 
2644.272669  	-0.045740 
2645.704328  	-0.045624 
2647.135986  	-0.045598 
2648.567644  	-0.045584 
2649.999302  	-0.045550 
2651.430960  	-0.045459 
2652.862618  	-0.045437 
2654.294277  	-0.045376 
2655.725935  	-0.045269 
2657.157593  	-0.045226 
2658.589251  	-0.045023 
2660.020909  	-0.044781 
2661.452568  	-0.044741 
2662.884226  	-0.044741 
2664.315884  	-0.044796 
2665.747542  	-0.044880 
2667.179200  	-0.044875 
2668.610858  	-0.044900 
2670.042517  	-0.044879 
2671.474175  	-0.044806 
2672.905833  	-0.044788 
2674.337491  	-0.044715 
2675.769149  	-0.044751 
2677.200808  	-0.044922 
2678.632466  	-0.044915 
2680.064124  	-0.044814 
2681.495782  	-0.044673 
2682.927440  	-0.044481 
2684.359099  	-0.044507 
2685.790757  	-0.044617 
2687.222415  	-0.044586 
2688.654073  	-0.044594 
2690.085731  	-0.044639 
2691.517389  	-0.044613 
2692.949048  	-0.044608 
2694.380706  	-0.044715 
2695.812364  	-0.044848 
2697.244022  	-0.044816 
2698.675680  	-0.044698 
2700.107339  	-0.044671 
2701.538997  	-0.044609 
2702.970655  	-0.044453 
2704.402313  	-0.044302 
2705.833971  	-0.044100 
2707.265630  	-0.043821 
2708.697288  	-0.043614 
2710.128946  	-0.043469 
2711.560604  	-0.043131 
2712.992262  	-0.042741 
2714.423920  	-0.042580 
2715.855579  	-0.042309 
2717.287237  	-0.041834 
2718.718895  	-0.041493 
2720.150553  	-0.041117 
2721.582211  	-0.040738 
2723.013870  	-0.040710 
2724.445528  	-0.040816 
2725.877186  	-0.040945 
2727.308844  	-0.041305 
2728.740502  	-0.041769 
2730.172160  	-0.042154 
2731.603819  	-0.042484 
2733.035477  	-0.042873 
2734.467135  	-0.043191 
2735.898793  	-0.043212 
2737.330451  	-0.043309 
2738.762110  	-0.043639 
2740.193768  	-0.043770 
2741.625426  	-0.043902 
2743.057084  	-0.044259 
2744.488742  	-0.044460 
2745.920401  	-0.044450 
2747.352059  	-0.044364 
2748.783717  	-0.044353 
2750.215375  	-0.044567 
2751.647033  	-0.044694 
2753.078691  	-0.044620 
2754.510350  	-0.044593 
2755.942008  	-0.044546 
2757.373666  	-0.044425 
2758.805324  	-0.044296 
2760.236982  	-0.044214 
2761.668641  	-0.044239 
2763.100299  	-0.044142 
2764.531957  	-0.043953 
2765.963615  	-0.044072 
2767.395273  	-0.044215 
2768.826931  	-0.043935 
2770.258590  	-0.043606 
2771.690248  	-0.043606 
2773.121906  	-0.043684 
2774.553564  	-0.043588 
2775.985222  	-0.043381 
2777.416881  	-0.043138 
2778.848539  	-0.042908 
2780.280197  	-0.042720 
2781.711855  	-0.042455 
2783.143513  	-0.042063 
2784.575172  	-0.041646 
2786.006830  	-0.041260 
2787.438488  	-0.040885 
2788.870146  	-0.040426 
2790.301804  	-0.039891 
2791.733462  	-0.039338 
2793.165121  	-0.038712 
2794.596779  	-0.038181 
2796.028437  	-0.037896 
2797.460095  	-0.037640 
2798.891753  	-0.037360 
2800.323412  	-0.037046 
2801.755070  	-0.036500 
2803.186728  	-0.035738 
2804.618386  	-0.034786 
2806.050044  	-0.033694 
2807.481703  	-0.032708 
2808.913361  	-0.031842 
2810.345019  	-0.031049 
2811.776677  	-0.030289 
2813.208335  	-0.029376 
2814.639993  	-0.028414 
2816.071652  	-0.027454 
2817.503310  	-0.026211 
2818.934968  	-0.024686 
2820.366626  	-0.022951 
2821.798284  	-0.020903 
2823.229943  	-0.018554 
2824.661601  	-0.015749 
2826.093259  	-0.012084 
2827.524917  	-0.007140 
2828.956575  	-0.000400 
2830.388233  	0.008594 
2831.819892  	0.019936 
2833.251550  	0.033307 
2834.683208  	0.047328 
2836.114866  	0.058642 
2837.546524  	0.064253 
2838.978183  	0.063872 
2840.409841  	0.058569 
2841.841499  	0.050032 
2843.273157  	0.039859 
2844.704815  	0.029424 
2846.136474  	0.019962 
2847.568132  	0.011921 
2848.999790  	0.005306 
2850.431448  	0.000241 
2851.863106  	-0.003089 
2853.294764  	-0.004871 
2854.726423  	-0.005315 
2856.158081  	-0.004030 
2857.589739  	-0.000543 
2859.021397  	0.005531 
2860.453055  	0.014762 
2861.884714  	0.027204 
2863.316372  	0.041325 
2864.748030  	0.054142 
2866.179688  	0.062635 
2867.611346  	0.065478 
2869.043005  	0.064187 
2870.474663  	0.061371 
2871.906321  	0.058996 
2873.337979  	0.058019 
2874.769637  	0.058585 
2876.201295  	0.060025 
2877.632954  	0.060454 
2879.064612  	0.058824 
2880.496270  	0.056134 
2881.927928  	0.053151 
2883.359586  	0.050409 
2884.791245  	0.048593 
2886.222903  	0.047493 
2887.654561  	0.046955 
2889.086219  	0.047112 
2890.517877  	0.047962 
2891.949535  	0.049644 
2893.381194  	0.052168 
2894.812852  	0.055990 
2896.244510  	0.061368 
2897.676168  	0.067423 
2899.107826  	0.074272 
2900.539485  	0.082231 
2901.971143  	0.090144 
2903.402801  	0.097974 
2904.834459  	0.105884 
2906.266117  	0.113006 
2907.697776  	0.119611 
2909.129434  	0.125685 
2910.561092  	0.131720 
2911.992750  	0.139493 
2913.424408  	0.148480 
2914.856066  	0.157618 
2916.287725  	0.165818 
2917.719383  	0.169706 
2919.151041  	0.167724 
2920.582699  	0.160825 
2922.014357  	0.150866 
2923.446016  	0.140312 
2924.877674  	0.129655 
2926.309332  	0.118459 
2927.740990  	0.106401 
2929.172648  	0.093219 
2930.604306  	0.080064 
2932.035965  	0.067818 
2933.467623  	0.056719 
2934.899281  	0.047745 
2936.330939  	0.041451 
2937.762597  	0.037768 
2939.194256  	0.037108 
2940.625914  	0.040314 
2942.057572  	0.048420 
2943.489230  	0.061835 
2944.920888  	0.079230 
2946.352547  	0.098011 
2947.784205  	0.114547 
2949.215863  	0.125283 
2950.647521  	0.128783 
2952.079179  	0.125387 
2953.510837  	0.117324 
2954.942496  	0.107623 
2956.374154  	0.099296 
2957.805812  	0.094020 
2959.237470  	0.090192 
2960.669128  	0.085759 
2962.100787  	0.079595 
2963.532445  	0.070276 
2964.964103  	0.058277 
2966.395761  	0.045475 
2967.827419  	0.033079 
2969.259078  	0.021826 
2970.690736  	0.011729 
2972.122394  	0.002704 
2973.554052  	-0.005104 
2974.985710  	-0.011839 
2976.417368  	-0.017496 
2977.849027  	-0.022095 
2979.280685  	-0.026066 
2980.712343  	-0.029585 
2982.144001  	-0.032487 
2983.575659  	-0.034916 
2985.007318  	-0.037016 
2986.438976  	-0.038661 
2987.870634  	-0.040050 
2989.302292  	-0.041337 
2990.733950  	-0.042311 
2992.165608  	-0.043138 
2993.597267  	-0.043995 
2995.028925  	-0.044725 
2996.460583  	-0.045371 
2997.892241  	-0.045930 
2999.323899  	-0.046333 
3000.755558  	-0.046644 
3002.187216  	-0.046891 
3003.618874  	-0.047268 
3005.050532  	-0.047693 
3006.482190  	-0.047867 
3007.913849  	-0.048126 
3009.345507  	-0.048439 
3010.777165  	-0.048397 
3012.208823  	-0.048547 
3013.640481  	-0.049130 
3015.072139  	-0.049438 
3016.503798  	-0.049391 
3017.935456  	-0.049369 
3019.367114  	-0.049522 
3020.798772  	-0.049890 
3022.230430  	-0.050200 
3023.662089  	-0.050182 
3025.093747  	-0.050101 
3026.525405  	-0.050274 
3027.957063  	-0.050506 
3029.388721  	-0.050496 
3030.820380  	-0.050316 
3032.252038  	-0.050138 
3033.683696  	-0.050165 
3035.115354  	-0.050499 
3036.547012  	-0.050794 
3037.978670  	-0.050831 
3039.410329  	-0.050747 
3040.841987  	-0.050539 
3042.273645  	-0.050401 
3043.705303  	-0.050574 
3045.136961  	-0.050781 
3046.568620  	-0.050753 
3048.000278  	-0.050579 
3049.431936  	-0.050552 
3050.863594  	-0.050853 
3052.295252  	-0.051147 
3053.726910  	-0.051162 
3055.158569  	-0.051036 
3056.590227  	-0.050900 
3058.021885  	-0.050911 
3059.453543  	-0.051084 
3060.885201  	-0.051223 
3062.316860  	-0.051203 
3063.748518  	-0.050969 
3065.180176  	-0.050809 
3066.611834  	-0.051021 
3068.043492  	-0.051236 
3069.475151  	-0.051272 
3070.906809  	-0.051386 
3072.338467  	-0.051478 
3073.770125  	-0.051431 
3075.201783  	-0.051319 
3076.633441  	-0.051181 
3078.065100  	-0.051238 
3079.496758  	-0.051496 
3080.928416  	-0.051516 
3082.360074  	-0.051265 
3083.791732  	-0.051210 
3085.223391  	-0.051391 
3086.655049  	-0.051516 
3088.086707  	-0.051656 
3089.518365  	-0.051714 
3090.950023  	-0.051451 
3092.381682  	-0.051416 
3093.813340  	-0.051825 
3095.244998  	-0.051887 
3096.676656  	-0.051586 
3098.108314  	-0.051471 
3099.539972  	-0.051355 
3100.971631  	-0.051198 
3102.403289  	-0.051282 
3103.834947  	-0.051467 
3105.266605  	-0.051605 
3106.698263  	-0.051654 
3108.129922  	-0.051521 
3109.561580  	-0.051409 
3110.993238  	-0.051482 
3112.424896  	-0.051526 
3113.856554  	-0.051513 
3115.288212  	-0.051596 
3116.719871  	-0.051721 
3118.151529  	-0.051877 
3119.583187  	-0.051949 
3121.014845  	-0.051742 
3122.446503  	-0.051575 
3123.878162  	-0.051598 
3125.309820  	-0.051483 
3126.741478  	-0.051472 
3128.173136  	-0.051664 
3129.604794  	-0.051505 
3131.036453  	-0.051234 
3132.468111  	-0.051534 
3133.899769  	-0.052130 
3135.331427  	-0.052237 
3136.763085  	-0.051786 
3138.194743  	-0.051467 
3139.626402  	-0.051439 
3141.058060  	-0.051282 
3142.489718  	-0.051170 
3143.921376  	-0.051256 
3145.353034  	-0.051320 
3146.784693  	-0.051370 
3148.216351  	-0.051250 
3149.648009  	-0.051074 
3151.079667  	-0.051221 
3152.511325  	-0.051344 
3153.942983  	-0.051394 
3155.374642  	-0.051668 
3156.806300  	-0.051681 
3158.237958  	-0.051424 
3159.669616  	-0.051507 
3161.101274  	-0.051804 
3162.532933  	-0.051839 
3163.964591  	-0.051546 
3165.396249  	-0.051394 
3166.827907  	-0.051590 
3168.259565  	-0.051681 
3169.691224  	-0.051739 
3171.122882  	-0.051914 
3172.554540  	-0.051855 
3173.986198  	-0.051888 
3175.417856  	-0.052157 
3176.849514  	-0.052081 
3178.281173  	-0.051816 
3179.712831  	-0.051709 
3181.144489  	-0.051679 
3182.576147  	-0.051752 
3184.007805  	-0.051872 
3185.439464  	-0.051949 
3186.871122  	-0.051719 
3188.302780  	-0.051136 
3189.734438  	-0.051055 
3191.166096  	-0.051535 
3192.597755  	-0.051684 
3194.029413  	-0.051619 
3195.461071  	-0.051689 
3196.892729  	-0.051854 
3198.324387  	-0.052176 
3199.756045  	-0.052171 
3201.187704  	-0.051823 
3202.619362  	-0.051870 
3204.051020  	-0.052022 
3205.482678  	-0.051845 
3206.914336  	-0.051729 
3208.345995  	-0.051719 
3209.777653  	-0.051752 
3211.209311  	-0.051922 
3212.640969  	-0.052049 
3214.072627  	-0.052173 
3215.504285  	-0.052302 
3216.935944  	-0.052224 
3218.367602  	-0.052090 
3219.799260  	-0.052039 
3221.230918  	-0.052100 
3222.662576  	-0.052408 
3224.094235  	-0.052665 
3225.525893  	-0.052610 
3226.957551  	-0.052531 
3228.389209  	-0.052558 
3229.820867  	-0.052617 
3231.252526  	-0.052708 
3232.684184  	-0.052741 
3234.115842  	-0.052739 
3235.547500  	-0.052729 
3236.979158  	-0.052677 
3238.410816  	-0.052776 
3239.842475  	-0.052932 
3241.274133  	-0.052848 
3242.705791  	-0.052781 
3244.137449  	-0.052935 
3245.569107  	-0.053018 
3247.000766  	-0.052969 
3248.432424  	-0.052969 
3249.864082  	-0.053042 
3251.295740  	-0.053222 
3252.727398  	-0.053479 
3254.159057  	-0.053499 
3255.590715  	-0.053156 
3257.022373  	-0.052796 
3258.454031  	-0.052660 
3259.885689  	-0.052785 
3261.317347  	-0.053126 
3262.749006  	-0.053217 
3264.180664  	-0.052860 
3265.612322  	-0.052683 
3267.043980  	-0.052953 
3268.475638  	-0.053178 
3269.907297  	-0.053018 
3271.338955  	-0.052760 
3272.770613  	-0.052940 
3274.202271  	-0.053303 
3275.633929  	-0.053229 
3277.065587  	-0.053032 
3278.497246  	-0.053041 
3279.928904  	-0.053055 
3281.360562  	-0.053177 
3282.792220  	-0.053352 
3284.223878  	-0.053407 
3285.655537  	-0.053461 
3287.087195  	-0.053357 
3288.518853  	-0.053196 
3289.950511  	-0.053379 
3291.382169  	-0.053549 
3292.813828  	-0.053464 
3294.245486  	-0.053502 
3295.677144  	-0.053492 
3297.108802  	-0.053200 
3298.540460  	-0.053063 
3299.972118  	-0.053191 
3301.403777  	-0.053193 
3302.835435  	-0.053094 
3304.267093  	-0.053156 
3305.698751  	-0.053365 
3307.130409  	-0.053563 
3308.562068  	-0.053549 
3309.993726  	-0.053472 
3311.425384  	-0.053711 
3312.857042  	-0.053886 
3314.288700  	-0.053648 
3315.720359  	-0.053493 
3317.152017  	-0.053555 
3318.583675  	-0.053596 
3320.015333  	-0.053606 
3321.446991  	-0.053496 
3322.878649  	-0.053455 
3324.310308  	-0.053614 
3325.741966  	-0.053682 
3327.173624  	-0.053666 
3328.605282  	-0.053592 
3330.036940  	-0.053476 
3331.468599  	-0.053416 
3332.900257  	-0.053131 
3334.331915  	-0.052892 
3335.763573  	-0.053049 
3337.195231  	-0.053054 
3338.626889  	-0.053101 
3340.058548  	-0.053438 
3341.490206  	-0.053376 
3342.921864  	-0.053221 
3344.353522  	-0.053398 
3345.785180  	-0.053418 
3347.216839  	-0.053342 
3348.648497  	-0.053257 
3350.080155  	-0.053084 
3351.511813  	-0.053135 
3352.943471  	-0.053332 
3354.375130  	-0.053564 
3355.806788  	-0.053758 
3357.238446  	-0.053573 
3358.670104  	-0.053325 
3360.101762  	-0.053349 
3361.533420  	-0.053368 
3362.965079  	-0.053418 
3364.396737  	-0.053674 
3365.828395  	-0.053918 
3367.260053  	-0.053807 
3368.691711  	-0.053556 
3370.123370  	-0.053648 
3371.555028  	-0.053711 
3372.986686  	-0.053641 
3374.418344  	-0.053884 
3375.850002  	-0.053887 
3377.281660  	-0.053575 
3378.713319  	-0.053688 
3380.144977  	-0.053871 
3381.576635  	-0.053838 
3383.008293  	-0.053855 
3384.439951  	-0.053937 
3385.871610  	-0.054277 
3387.303268  	-0.054467 
3388.734926  	-0.054098 
3390.166584  	-0.053813 
3391.598242  	-0.053657 
3393.029901  	-0.053416 
3394.461559  	-0.053464 
3395.893217  	-0.053555 
3397.324875  	-0.053564 
3398.756533  	-0.053709 
3400.188191  	-0.053681 
3401.619850  	-0.053598 
3403.051508  	-0.053763 
3404.483166  	-0.053828 
3405.914824  	-0.053673 
3407.346482  	-0.053634 
3408.778141  	-0.053780 
3410.209799  	-0.053844 
3411.641457  	-0.053769 
3413.073115  	-0.053704 
3414.504773  	-0.053584 
3415.936432  	-0.053574 
3417.368090  	-0.053807 
3418.799748  	-0.053889 
3420.231406  	-0.053830 
3421.663064  	-0.053848 
3423.094722  	-0.053759 
3424.526381  	-0.053679 
3425.958039  	-0.053773 
3427.389697  	-0.053931 
3428.821355  	-0.054017 
3430.253013  	-0.053933 
3431.684672  	-0.053887 
3433.116330  	-0.053917 
3434.547988  	-0.053863 
3435.979646  	-0.053929 
3437.411304  	-0.054042 
3438.842962  	-0.054101 
3440.274621  	-0.054157 
3441.706279  	-0.053845 
3443.137937  	-0.053557 
3444.569595  	-0.053842 
3446.001253  	-0.054030 
3447.432912  	-0.054002 
3448.864570  	-0.054126 
3450.296228  	-0.054291 
3451.727886  	-0.054552 
3453.159544  	-0.054480 
3454.591203  	-0.054055 
3456.022861  	-0.054156 
3457.454519  	-0.054280 
3458.886177  	-0.053896 
3460.317835  	-0.053910 
3461.749493  	-0.054170 
3463.181152  	-0.054042 
3464.612810  	-0.054047 
3466.044468  	-0.054269 
3467.476126  	-0.054311 
3468.907784  	-0.054453 
3470.339443  	-0.054764 
3471.771101  	-0.054622 
3473.202759  	-0.054105 
3474.634417  	-0.054023 
3476.066075  	-0.054290 
3477.497734  	-0.054355 
3478.929392  	-0.054211 
3480.361050  	-0.053957 
3481.792708  	-0.053972 
3483.224366  	-0.054394 
3484.656024  	-0.054605 
3486.087683  	-0.054704 
3487.519341  	-0.054984 
3488.950999  	-0.054974 
3490.382657  	-0.054806 
3491.814315  	-0.054980 
3493.245974  	-0.055219 
3494.677632  	-0.055146 
3496.109290  	-0.054896 
3497.540948  	-0.054720 
3498.972606  	-0.054518 
3500.404264  	-0.054331 
3501.835923  	-0.054590 
3503.267581  	-0.055108 
3504.699239  	-0.055153 
3506.130897  	-0.054811 
3507.562555  	-0.054659 
3508.994214  	-0.054807 
3510.425872  	-0.054860 
3511.857530  	-0.054670 
3513.289188  	-0.054544 
3514.720846  	-0.054520 
3516.152505  	-0.054609 
3517.584163  	-0.054692 
3519.015821  	-0.054500 
3520.447479  	-0.054344 
3521.879137  	-0.054370 
3523.310795  	-0.054360 
3524.742454  	-0.054357 
3526.174112  	-0.054107 
3527.605770  	-0.053879 
3529.037428  	-0.054286 
3530.469086  	-0.054731 
3531.900745  	-0.054967 
3533.332403  	-0.055057 
3534.764061  	-0.054684 
3536.195719  	-0.054589 
3537.627377  	-0.054839 
3539.059035  	-0.054478 
3540.490694  	-0.054345 
3541.922352  	-0.054720 
3543.354010  	-0.054518 
3544.785668  	-0.054224 
3546.217326  	-0.054599 
3547.648985  	-0.054946 
3549.080643  	-0.054887 
3550.512301  	-0.054759 
3551.943959  	-0.054843 
3553.375617  	-0.055048 
3554.807276  	-0.055105 
3556.238934  	-0.055062 
3557.670592  	-0.054866 
3559.102250  	-0.054684 
3560.533908  	-0.054750 
3561.965566  	-0.054815 
3563.397225  	-0.054688 
3564.828883  	-0.054220 
3566.260541  	-0.053836 
3567.692199  	-0.054635 
3569.123857  	-0.055230 
3570.555516  	-0.054773 
3571.987174  	-0.054726 
3573.418832  	-0.054870 
3574.850490  	-0.054537 
3576.282148  	-0.054423 
3577.713807  	-0.054926 
3579.145465  	-0.055595 
3580.577123  	-0.055683 
3582.008781  	-0.055086 
3583.440439  	-0.054771 
3584.872097  	-0.054611 
3586.303756  	-0.054079 
3587.735414  	-0.054448 
3589.167072  	-0.055707 
3590.598730  	-0.055682 
3592.030388  	-0.055149 
3593.462047  	-0.054691 
3594.893705  	-0.054199 
3596.325363  	-0.054380 
3597.757021  	-0.054877 
3599.188679  	-0.054812 
3600.620337  	-0.054950 
3602.051996  	-0.055340 
3603.483654  	-0.055136 
3604.915312  	-0.055137 
3606.346970  	-0.055355 
3607.778628  	-0.054907 
3609.210287  	-0.054818 
3610.641945  	-0.055130 
3612.073603  	-0.054604 
3613.505261  	-0.054538 
3614.936919  	-0.055315 
3616.368578  	-0.055113 
3617.800236  	-0.054454 
3619.231894  	-0.054729 
3620.663552  	-0.055743 
3622.095210  	-0.055920 
3623.526868  	-0.055556 
3624.958527  	-0.055412 
3626.390185  	-0.054719 
3627.821843  	-0.053438 
3629.253501  	-0.053978 
3630.685159  	-0.055406 
3632.116818  	-0.054737 
3633.548476  	-0.054701 
3634.980134  	-0.055282 
3636.411792  	-0.055083 
3637.843450  	-0.055165 
3639.275109  	-0.055478 
3640.706767  	-0.054969 
3642.138425  	-0.054683 
3643.570083  	-0.055115 
3645.001741  	-0.054958 
3646.433399  	-0.054285 
3647.865058  	-0.054056 
3649.296716  	-0.053877 
3650.728374  	-0.054169 
3652.160032  	-0.055627 
3653.591690  	-0.055554 
3655.023349  	-0.054662 
3656.455007  	-0.054863 
3657.886665  	-0.055380 
3659.318323  	-0.054953 
3660.749981  	-0.055044 
3662.181639  	-0.055494 
3663.613298  	-0.055458 
3665.044956  	-0.055402 
3666.476614  	-0.055422 
3667.908272  	-0.055044 
3669.339930  	-0.054508 
3670.771589  	-0.054966 
3672.203247  	-0.055241 
3673.634905  	-0.054274 
3675.066563  	-0.053986 
3676.498221  	-0.055922 
3677.929880  	-0.055803 
3679.361538  	-0.055399 
3680.793196  	-0.055710 
3682.224854  	-0.055591 
3683.656512  	-0.055468 
3685.088170  	-0.055131 
3686.519829  	-0.054240 
3687.951487  	-0.054277 
3689.383145  	-0.055419 
3690.814803  	-0.055483 
3692.246461  	-0.055671 
3693.678120  	-0.055942 
3695.109778  	-0.055431 
3696.541436  	-0.055053 
3697.973094  	-0.055071 
3699.404752  	-0.054761 
3700.836411  	-0.054500 
3702.268069  	-0.055030 
3703.699727  	-0.055653 
3705.131385  	-0.055645 
3706.563043  	-0.055236 
3707.994701  	-0.054760 
3709.426360  	-0.054686 
3710.858018  	-0.054862 
3712.289676  	-0.055019 
3713.721334  	-0.055757 
3715.152992  	-0.056156 
3716.584651  	-0.055663 
3718.016309  	-0.055244 
3719.447967  	-0.055201 
3720.879625  	-0.054926 
3722.311283  	-0.054884 
3723.742941  	-0.055260 
3725.174600  	-0.055233 
3726.606258  	-0.055302 
3728.037916  	-0.055805 
3729.469574  	-0.055640 
3730.901232  	-0.055210 
3732.332891  	-0.055360 
3733.764549  	-0.054929 
3735.196207  	-0.054210 
3736.627865  	-0.056016 
3738.059523  	-0.056906 
3739.491182  	-0.055931 
3740.922840  	-0.055838 
3742.354498  	-0.055496 
3743.786156  	-0.054420 
3745.217814  	-0.055785 
3746.649472  	-0.056057 
3748.081131  	-0.054671 
3749.512789  	-0.055064 
3750.944447  	-0.056026 
3752.376105  	-0.055561 
3753.807763  	-0.055920 
3755.239422  	-0.055844 
3756.671080  	-0.055600 
3758.102738  	-0.055976 
3759.534396  	-0.056060 
3760.966054  	-0.056128 
3762.397712  	-0.056008 
3763.829371  	-0.055351 
3765.261029  	-0.055268 
3766.692687  	-0.055576 
3768.124345  	-0.055294 
3769.556003  	-0.055539 
3770.987662  	-0.056315 
3772.419320  	-0.056243 
3773.850978  	-0.055898 
3775.282636  	-0.055741 
3776.714294  	-0.055607 
3778.145953  	-0.055451 
3779.577611  	-0.055517 
3781.009269  	-0.055560 
3782.440927  	-0.055211 
3783.872585  	-0.055108 
3785.304243  	-0.055457 
3786.735902  	-0.055640 
3788.167560  	-0.055570 
3789.599218  	-0.055330 
3791.030876  	-0.055328 
3792.462534  	-0.055824 
3793.894193  	-0.055815 
3795.325851  	-0.055172 
3796.757509  	-0.054850 
3798.189167  	-0.054722 
3799.620825  	-0.054267 
3801.052484  	-0.054334 
3802.484142  	-0.055861 
3803.915800  	-0.055884 
3805.347458  	-0.054849 
3806.779116  	-0.055331 
3808.210774  	-0.056892 
3809.642433  	-0.055997 
3811.074091  	-0.055083 
3812.505749  	-0.055247 
3813.937407  	-0.054981 
3815.369065  	-0.054745 
3816.800724  	-0.055808 
3818.232382  	-0.055469 
3819.664040  	-0.054279 
3821.095698  	-0.054750 
3822.527356  	-0.056609 
3823.959014  	-0.056074 
3825.390673  	-0.055419 
3826.822331  	-0.055896 
3828.253989  	-0.056065 
3829.685647  	-0.055350 
3831.117305  	-0.055096 
3832.548964  	-0.055446 
3833.980622  	-0.055449 
3835.412280  	-0.055071 
3836.843938  	-0.054828 
3838.275596  	-0.055117 
3839.707255  	-0.055428 
3841.138913  	-0.055313 
3842.570571  	-0.055402 
3844.002229  	-0.055921 
3845.433887  	-0.056235 
3846.865545  	-0.055754 
3848.297204  	-0.055202 
3849.728862  	-0.055247 
3851.160520  	-0.054972 
3852.592178  	-0.054244 
3854.023836  	-0.055683 
3855.455495  	-0.056869 
3856.887153  	-0.056220 
3858.318811  	-0.056052 
3859.750469  	-0.055935 
3861.182127  	-0.055589 
3862.613786  	-0.054997 
3864.045444  	-0.054327 
3865.477102  	-0.055204 
3866.908760  	-0.056151 
3868.340418  	-0.055172 
3869.772076  	-0.054958 
3871.203735  	-0.056442 
3872.635393  	-0.055798 
3874.067051  	-0.055200 
3875.498709  	-0.055907 
3876.930367  	-0.055712 
3878.362026  	-0.054985 
3879.793684  	-0.054969 
3881.225342  	-0.055592 
3882.657000  	-0.055477 
3884.088658  	-0.054677 
3885.520316  	-0.054559 
3886.951975  	-0.055794 
3888.383633  	-0.055907 
3889.815291  	-0.055249 
3891.246949  	-0.055295 
3892.678607  	-0.056286 
3894.110266  	-0.056638 
3895.541924  	-0.055945 
3896.973582  	-0.055007 
3898.405240  	-0.054766 
3899.836898  	-0.055084 
3901.268557  	-0.055012 
3902.700215  	-0.054874 
3904.131873  	-0.055349 
3905.563531  	-0.055875 
3906.995189  	-0.055899 
3908.426847  	-0.055797 
3909.858506  	-0.055754 
3911.290164  	-0.055945 
3912.721822  	-0.056225 
3914.153480  	-0.055904 
3915.585138  	-0.055197 
3917.016797  	-0.054947 
3918.448455  	-0.055263 
3919.880113  	-0.055600 
3921.311771  	-0.055628 
3922.743429  	-0.055300 
3924.175088  	-0.055172 
3925.606746  	-0.055365 
3927.038404  	-0.055379 
3928.470062  	-0.055386 
3929.901720  	-0.055419 
3931.333378  	-0.055309 
3932.765037  	-0.055497 
3934.196695  	-0.055710 
3935.628353  	-0.055469 
3937.060011  	-0.055390 
3938.491669  	-0.055606 
3939.923328  	-0.055567 
3941.354986  	-0.055302 
3942.786644  	-0.055268 
3944.218302  	-0.055602 
3945.649960  	-0.055799 
3947.081618  	-0.055799 
3948.513277  	-0.055959 
3949.944935  	-0.056066 
3951.376593  	-0.056023 
3952.808251  	-0.056067 
3954.239909  	-0.055996 
3955.671568  	-0.055966 
3957.103226  	-0.056116 
3958.534884  	-0.055966 
3959.966542  	-0.055761 
3961.398200  	-0.055879 
3962.829859  	-0.055952 
3964.261517  	-0.055876 
3965.693175  	-0.055656 
3967.124833  	-0.055386 
3968.556491  	-0.055364 
3969.988149  	-0.055276 
3971.419808  	-0.055250 
3972.851466  	-0.055691 
3974.283124  	-0.055759 
3975.714782  	-0.055276 
3977.146440  	-0.055202 
3978.578099  	-0.055460 
3980.009757  	-0.055671 
3981.441415  	-0.055797 
3982.873073  	-0.055561 
3984.304731  	-0.055288 
3985.736389  	-0.055438 
3987.168048  	-0.055511 
3988.599706  	-0.055169 
3990.031364  	-0.055026 
3991.463022  	-0.055369 
3992.894680  	-0.055698 
3994.326339  	-0.055950 
3995.757997  	-0.056171 
3997.189655  	-0.055932 
3998.621313  	-0.055492 
4000.052971  	-0.055313 