##TITLE=No Description
##DATA TYPE=INFRARED SPECTRUM
##XUNITS=1/CM
##YUNITS=%T
399.432634  	86.993310 
400.864292  	82.676929 
402.295950  	79.439594 
403.727608  	76.742462 
405.159267  	76.231511 
406.590925  	82.642587 
408.022583  	87.996106 
409.454241  	83.379004 
410.885899  	78.862538 
412.317558  	82.308746 
413.749216  	85.983949 
415.180874  	84.339320 
416.612532  	84.984425 
418.044190  	87.545252 
419.475848  	84.909634 
420.907507  	85.836502 
422.339165  	88.071029 
423.770823  	86.180318 
425.202481  	84.977912 
426.634139  	86.722109 
428.065798  	88.637799 
429.497456  	90.400485 
430.929114  	91.187242 
432.360772  	90.392682 
433.792430  	90.199047 
435.224089  	91.748677 
436.655747  	92.193500 
438.087405  	89.365572 
439.519063  	87.130611 
440.950721  	87.304987 
442.382379  	87.267021 
443.814038  	86.358662 
445.245696  	86.645193 
446.677354  	87.299004 
448.109012  	86.701935 
449.540670  	86.246346 
450.972329  	87.491040 
452.403987  	88.595076 
453.835645  	87.812683 
455.267303  	87.175487 
456.698961  	87.609282 
458.130619  	87.854003 
459.562278  	87.092737 
460.993936  	86.504609 
462.425594  	87.470937 
463.857252  	88.232986 
465.288910  	86.816399 
466.720569  	85.745373 
468.152227  	86.030719 
469.583885  	85.740748 
471.015543  	85.561636 
472.447201  	86.065508 
473.878860  	86.359140 
475.310518  	86.811690 
476.742176  	86.833434 
478.173834  	85.600349 
479.605492  	84.414625 
481.037150  	84.119068 
482.468809  	84.259268 
483.900467  	83.948697 
485.332125  	82.589073 
486.763783  	81.162850 
488.195441  	81.123207 
489.627100  	81.952473 
491.058758  	81.897252 
492.490416  	81.355753 
493.922074  	81.663674 
495.353732  	81.999134 
496.785391  	81.935742 
498.217049  	81.894726 
499.648707  	81.742094 
501.080365  	81.911440 
502.512023  	82.263724 
503.943681  	81.892482 
505.375340  	81.516999 
506.806998  	81.392239 
508.238656  	81.319228 
509.670314  	81.645979 
511.101972  	81.767493 
512.533631  	81.487350 
513.965289  	81.323495 
515.396947  	80.791990 
516.828605  	80.198993 
518.260263  	80.397467 
519.691921  	80.285973 
521.123580  	79.238052 
522.555238  	78.027038 
523.986896  	77.024749 
525.418554  	76.278124 
526.850212  	75.722945 
528.281871  	75.089302 
529.713529  	74.361924 
531.145187  	73.397068 
532.576845  	71.882657 
534.008503  	70.246951 
535.440162  	69.176587 
536.871820  	68.274042 
538.303478  	66.958300 
539.735136  	65.512529 
541.166794  	63.873267 
542.598452  	62.102879 
544.030111  	60.681695 
545.461769  	59.133904 
546.893427  	57.313905 
548.325085  	55.711881 
549.756743  	54.082065 
551.188402  	52.855121 
552.620060  	52.455364 
554.051718  	52.525858 
555.483376  	53.532160 
556.915034  	55.139207 
558.346692  	56.621325 
559.778351  	58.469986 
561.210009  	60.418138 
562.641667  	62.405222 
564.073325  	65.278570 
565.504983  	68.891179 
566.936642  	73.320244 
568.368300  	78.162842 
569.799958  	81.490826 
571.231616  	82.636612 
572.663274  	82.040816 
574.094933  	80.613061 
575.526591  	79.692404 
576.958249  	79.474871 
578.389907  	79.358982 
579.821565  	79.549529 
581.253223  	79.951279 
582.684882  	79.955842 
584.116540  	79.587668 
585.548198  	79.126108 
586.979856  	78.755222 
588.411514  	78.491525 
589.843173  	78.151694 
591.274831  	77.524151 
592.706489  	76.618715 
594.138147  	75.601373 
595.569805  	74.355733 
597.001464  	73.025907 
598.433122  	71.932056 
599.864780  	70.756834 
601.296438  	69.617656 
602.728096  	68.885785 
604.159754  	68.278861 
605.591413  	67.894414 
607.023071  	67.734265 
608.454729  	67.874020 
609.886387  	69.023454 
611.318045  	70.873826 
612.749704  	72.912211 
614.181362  	75.151176 
615.613020  	77.243367 
617.044678  	79.172095 
618.476336  	80.817530 
619.907994  	81.700866 
621.339653  	82.026195 
622.771311  	82.111691 
624.202969  	81.856277 
625.634627  	81.344224 
627.066285  	80.632354 
628.497944  	79.725510 
629.929602  	78.803467 
631.361260  	78.009595 
632.792918  	77.864947 
634.224576  	78.506392 
635.656235  	79.428196 
637.087893  	80.727230 
638.519551  	82.296725 
639.951209  	83.800243 
641.382867  	85.390142 
642.814525  	86.850233 
644.246184  	87.924892 
645.677842  	88.958593 
647.109500  	90.006504 
648.541158  	90.807668 
649.972816  	91.555198 
651.404475  	92.317349 
652.836133  	92.840698 
654.267791  	93.380899 
655.699449  	94.054381 
657.131107  	94.407080 
658.562766  	94.462836 
659.994424  	94.576796 
661.426082  	94.845248 
662.857740  	95.111203 
664.289398  	95.035406 
665.721056  	94.545530 
667.152715  	93.418702 
668.584373  	92.567644 
670.016031  	93.621398 
671.447689  	94.049671 
672.879347  	93.610560 
674.311006  	93.190827 
675.742664  	93.035098 
677.174322  	92.774970 
678.605980  	92.450120 
680.037638  	92.066210 
681.469296  	91.668321 
682.900955  	91.146488 
684.332613  	90.330682 
685.764271  	89.553773 
687.195929  	89.007000 
688.627587  	88.765818 
690.059246  	88.875347 
691.490904  	88.941286 
692.922562  	88.814054 
694.354220  	88.488678 
695.785878  	87.891206 
697.217537  	87.192647 
698.649195  	86.395618 
700.080853  	85.449698 
701.512511  	84.481456 
702.944169  	83.514524 
704.375827  	82.778747 
705.807486  	82.373660 
707.239144  	82.263782 
708.670802  	82.641760 
710.102460  	83.166553 
711.534118  	83.651537 
712.965777  	84.378668 
714.397435  	85.021042 
715.829093  	85.402987 
717.260751  	85.743256 
718.692409  	85.855480 
720.124067  	85.716708 
721.555726  	85.440889 
722.987384  	84.954310 
724.419042  	84.459068 
725.850700  	84.019252 
727.282358  	83.563908 
728.714017  	83.329059 
730.145675  	83.274162 
731.577333  	83.223291 
733.008991  	83.373845 
734.440649  	83.791374 
735.872308  	84.116304 
737.303966  	84.062362 
738.735624  	83.760147 
740.167282  	83.334270 
741.598940  	82.764286 
743.030598  	82.167842 
744.462257  	81.444308 
745.893915  	80.502338 
747.325573  	79.574139 
748.757231  	78.494089 
750.188889  	77.189429 
751.620548  	76.056077 
753.052206  	74.999348 
754.483864  	73.882494 
755.915522  	72.840343 
757.347180  	71.841920 
758.778839  	71.155342 
760.210497  	70.912824 
761.642155  	70.702383 
763.073813  	70.368667 
764.505471  	70.051806 
765.937129  	69.824769 
767.368788  	69.750553 
768.800446  	70.024078 
770.232104  	70.927351 
771.663762  	72.387244 
773.095420  	74.138041 
774.527079  	76.047021 
775.958737  	77.910083 
777.390395  	79.505403 
778.822053  	80.742715 
780.253711  	81.675632 
781.685369  	82.475413 
783.117028  	83.178471 
784.548686  	83.634778 
785.980344  	83.801389 
787.412002  	83.806738 
788.843660  	83.835257 
790.275319  	83.915051 
791.706977  	83.859683 
793.138635  	83.589809 
794.570293  	83.114096 
796.001951  	82.428782 
797.433610  	81.533019 
798.865268  	80.248811 
800.296926  	78.579468 
801.728584  	76.702193 
803.160242  	74.468813 
804.591900  	72.026637 
806.023559  	69.731052 
807.455217  	67.472982 
808.886875  	65.279615 
810.318533  	63.317467 
811.750191  	61.758156 
813.181850  	60.898217 
814.613508  	60.638184 
816.045166  	60.779143 
817.476824  	61.183987 
818.908482  	61.444480 
820.340141  	61.225960 
821.771799  	60.362654 
823.203457  	58.848598 
824.635115  	56.979395 
826.066773  	55.190006 
827.498431  	54.119587 
828.930090  	54.155248 
830.361748  	55.116883 
831.793406  	56.868535 
833.225064  	59.261595 
834.656722  	62.050202 
836.088381  	64.942919 
837.520039  	67.621719 
838.951697  	69.967043 
840.383355  	71.874689 
841.815013  	73.334440 
843.246671  	74.624793 
844.678330  	75.957431 
846.109988  	77.379921 
847.541646  	78.953009 
848.973304  	80.730230 
850.404962  	82.673519 
851.836621  	84.574796 
853.268279  	86.275591 
854.699937  	87.778636 
856.131595  	89.095114 
857.563253  	90.177065 
858.994912  	90.880044 
860.426570  	91.202635 
861.858228  	91.366705 
863.289886  	91.425503 
864.721544  	91.256845 
866.153202  	90.859144 
867.584861  	90.270479 
869.016519  	89.498525 
870.448177  	88.601389 
871.879835  	87.585299 
873.311493  	86.466715 
874.743152  	85.314030 
876.174810  	84.047261 
877.606468  	82.582591 
879.038126  	80.969131 
880.469784  	79.325327 
881.901443  	77.775073 
883.333101  	76.323783 
884.764759  	75.180563 
886.196417  	74.638513 
887.628075  	74.691006 
889.059733  	75.620802 
890.491392  	77.696307 
891.923050  	80.573023 
893.354708  	83.746481 
894.786366  	86.581024 
896.218024  	88.584222 
897.649683  	89.811175 
899.081341  	90.448780 
900.512999  	90.648101 
901.944657  	90.664524 
903.376315  	90.570938 
904.807973  	90.317048 
906.239632  	89.962502 
907.671290  	89.577007 
909.102948  	89.208032 
910.534606  	88.827199 
911.966264  	88.357777 
913.397923  	87.740518 
914.829581  	87.011562 
916.261239  	86.451135 
917.692897  	86.169626 
919.124555  	86.013991 
920.556214  	86.080487 
921.987872  	86.370976 
923.419530  	86.647734 
924.851188  	86.845766 
926.282846  	86.861532 
927.714504  	86.600121 
929.146163  	86.186467 
930.577821  	85.649497 
932.009479  	84.999147 
933.441137  	84.392172 
934.872795  	83.979068 
936.304454  	83.777046 
937.736112  	83.584301 
939.167770  	83.305570 
940.599428  	83.048481 
942.031086  	82.822226 
943.462744  	82.640950 
944.894403  	82.550735 
946.326061  	82.591434 
947.757719  	82.776766 
949.189377  	82.880467 
950.621035  	82.785338 
952.052694  	82.597909 
953.484352  	82.211634 
954.916010  	81.634071 
956.347668  	81.096371 
957.779326  	80.609389 
959.210985  	80.178392 
960.642643  	79.891686 
962.074301  	79.724295 
963.505959  	79.586665 
964.937617  	79.420666 
966.369275  	79.285975 
967.800934  	79.117447 
969.232592  	78.783164 
970.664250  	78.409393 
972.095908  	77.986734 
973.527566  	77.398989 
974.959225  	76.760251 
976.390883  	76.023761 
977.822541  	75.111592 
979.254199  	74.044214 
980.685857  	72.697348 
982.117516  	71.490820 
983.549174  	71.321227 
984.980832  	72.121921 
986.412490  	72.556824 
987.844148  	71.667581 
989.275806  	70.035359 
990.707465  	68.454967 
992.139123  	67.010033 
993.570781  	65.881229 
995.002439  	65.048682 
996.434097  	64.099710 
997.865756  	62.818445 
999.297414  	60.844976 
1000.729072  	58.074625 
1002.160730  	55.038254 
1003.592388  	52.301279 
1005.024046  	50.572877 
1006.455705  	49.934092 
1007.887363  	49.532352 
1009.319021  	48.611753 
1010.750679  	46.205740 
1012.182337  	42.409026 
1013.613996  	40.299538 
1015.045654  	43.208067 
1016.477312  	50.957861 
1017.908970  	60.167725 
1019.340628  	67.993985 
1020.772287  	73.616689 
1022.203945  	77.270275 
1023.635603  	79.713048 
1025.067261  	81.298140 
1026.498919  	81.910655 
1027.930577  	81.810870 
1029.362236  	81.345602 
1030.793894  	80.625339 
1032.225552  	79.884948 
1033.657210  	79.151988 
1035.088868  	78.315124 
1036.520527  	77.543852 
1037.952185  	76.790241 
1039.383843  	75.979692 
1040.815501  	75.285228 
1042.247159  	74.613446 
1043.678818  	73.872123 
1045.110476  	73.137890 
1046.542134  	72.415785 
1047.973792  	71.706092 
1049.405450  	70.951420 
1050.837108  	70.245360 
1052.268767  	69.627856 
1053.700425  	68.893231 
1055.132083  	68.168492 
1056.563741  	67.492557 
1057.995399  	66.699001 
1059.427058  	65.961232 
1060.858716  	65.211265 
1062.290374  	64.373446 
1063.722032  	63.593326 
1065.153690  	62.670981 
1066.585348  	61.670640 
1068.017007  	60.702168 
1069.448665  	59.571608 
1070.880323  	58.407108 
1072.311981  	57.040880 
1073.743639  	55.214357 
1075.175298  	52.926641 
1076.606956  	49.926709 
1078.038614  	47.120956 
1079.470272  	46.262591 
1080.901930  	48.009551 
1082.333589  	52.092532 
1083.765247  	57.088778 
1085.196905  	61.577141 
1086.628563  	64.996532 
1088.060221  	66.946423 
1089.491879  	67.626789 
1090.923538  	67.516064 
1092.355196  	66.798333 
1093.786854  	65.872665 
1095.218512  	64.742678 
1096.650170  	63.165848 
1098.081829  	61.560288 
1099.513487  	60.135836 
1100.945145  	59.174118 
1102.376803  	59.076610 
1103.808461  	59.373656 
1105.240120  	59.751909 
1106.671778  	60.033290 
1108.103436  	60.001983 
1109.535094  	60.157825 
1110.966752  	60.616177 
1112.398410  	61.102713 
1113.830069  	61.642083 
1115.261727  	62.010814 
1116.693385  	62.233294 
1118.125043  	62.389058 
1119.556701  	62.276167 
1120.988360  	62.132801 
1122.420018  	61.943923 
1123.851676  	61.476390 
1125.283334  	60.940863 
1126.714992  	60.286447 
1128.146650  	59.539610 
1129.578309  	58.814612 
1131.009967  	57.884918 
1132.441625  	56.899597 
1133.873283  	55.852903 
1135.304941  	54.590202 
1136.736600  	53.353248 
1138.168258  	51.915955 
1139.599916  	50.247563 
1141.031574  	48.654512 
1142.463232  	46.916171 
1143.894891  	45.163033 
1145.326549  	43.401712 
1146.758207  	41.394940 
1148.189865  	39.507130 
1149.621523  	37.581519 
1151.053181  	35.548675 
1152.484840  	33.762160 
1153.916498  	31.930106 
1155.348156  	30.344711 
1156.779814  	29.307416 
1158.211472  	28.647811 
1159.643131  	28.919782 
1161.074789  	30.125724 
1162.506447  	32.212067 
1163.938105  	35.483866 
1165.369763  	39.474016 
1166.801421  	44.113920 
1168.233080  	48.955780 
1169.664738  	52.743801 
1171.096396  	54.852888 
1172.528054  	54.779677 
1173.959712  	52.532803 
1175.391371  	49.257460 
1176.823029  	45.854017 
1178.254687  	42.899736 
1179.686345  	40.536988 
1181.118003  	38.035527 
1182.549662  	35.429919 
1183.981320  	33.062032 
1185.412978  	31.221537 
1186.844636  	30.631960 
1188.276294  	30.984504 
1189.707952  	31.978617 
1191.139611  	33.715957 
1192.571269  	35.668637 
1194.002927  	37.971669 
1195.434585  	40.695215 
1196.866243  	43.507178 
1198.297902  	46.638451 
1199.729560  	49.886473 
1201.161218  	53.112917 
1202.592876  	56.355857 
1204.024534  	58.954379 
1205.456193  	60.457026 
1206.887851  	60.451937 
1208.319509  	58.498030 
1209.751167  	55.121859 
1211.182825  	51.055943 
1212.614483  	47.010547 
1214.046142  	43.883131 
1215.477800  	41.577747 
1216.909458  	40.107556 
1218.341116  	39.577605 
1219.772774  	39.437842 
1221.204433  	39.837926 
1222.636091  	40.623353 
1224.067749  	41.404977 
1225.499407  	42.507455 
1226.931065  	43.652385 
1228.362723  	44.759908 
1229.794382  	46.084762 
1231.226040  	47.290303 
1232.657698  	48.522850 
1234.089356  	49.822157 
1235.521014  	50.957838 
1236.952673  	52.195879 
1238.384331  	53.379826 
1239.815989  	54.499855 
1241.247647  	55.776769 
1242.679305  	56.909849 
1244.110964  	58.114465 
1245.542622  	59.566980 
1246.974280  	61.038839 
1248.405938  	62.779383 
1249.837596  	64.740325 
1251.269254  	66.865159 
1252.700913  	69.345174 
1254.132571  	71.929263 
1255.564229  	74.679877 
1256.995887  	77.665345 
1258.427545  	80.586978 
1259.859204  	83.500616 
1261.290862  	86.340075 
1262.722520  	88.904645 
1264.154178  	91.235343 
1265.585836  	93.226461 
1267.017495  	94.823019 
1268.449153  	96.174039 
1269.880811  	97.276108 
1271.312469  	98.113327 
1272.744127  	98.769600 
1274.175785  	99.195321 
1275.607444  	99.413542 
1277.039102  	99.529518 
1278.470760  	99.445976 
1279.902418  	99.174439 
1281.334076  	98.860921 
1282.765735  	98.459107 
1284.197393  	97.945638 
1285.629051  	97.419568 
1287.060709  	96.951230 
1288.492367  	96.556691 
1289.924025  	96.256870 
1291.355684  	96.161019 
1292.787342  	96.367537 
1294.219000  	96.846795 
1295.650658  	97.536114 
1297.082316  	98.417548 
1298.513975  	99.377401 
1299.945633  	100.286348 
1301.377291  	101.070045 
1302.808949  	101.659561 
1304.240607  	102.046936 
1305.672266  	102.151170 
1307.103924  	101.966963 
1308.535582  	101.698292 
1309.967240  	101.631477 
1311.398898  	101.980483 
1312.830556  	102.725503 
1314.262215  	103.648777 
1315.693873  	104.511891 
1317.125531  	105.110133 
1318.557189  	105.465025 
1319.988847  	105.775628 
1321.420506  	105.971168 
1322.852164  	106.070033 
1324.283822  	106.147674 
1325.715480  	106.155906 
1327.147138  	106.217005 
1328.578796  	106.294311 
1330.010455  	106.277145 
1331.442113  	106.287130 
1332.873771  	106.301609 
1334.305429  	106.302066 
1335.737087  	106.325901 
1337.168746  	106.283292 
1338.600404  	106.229059 
1340.032062  	106.220517 
1341.463720  	106.252181 
1342.895378  	106.314154 
1344.327037  	106.296760 
1345.758695  	106.264805 
1347.190353  	106.242219 
1348.622011  	106.134566 
1350.053669  	106.105696 
1351.485327  	106.087918 
1352.916986  	105.969262 
1354.348644  	105.883971 
1355.780302  	105.652344 
1357.211960  	105.249249 
1358.643618  	104.598718 
1360.075277  	103.214566 
1361.506935  	101.088781 
1362.938593  	98.640033 
1364.370251  	97.457133 
1365.801909  	98.206813 
1367.233568  	100.057565 
1368.665226  	102.200907 
1370.096884  	103.842814 
1371.528542  	104.683921 
1372.960200  	104.997314 
1374.391858  	105.265973 
1375.823517  	105.397413 
1377.255175  	105.342203 
1378.686833  	105.227230 
1380.118491  	104.896729 
1381.550149  	104.304101 
1382.981808  	103.287579 
1384.413466  	102.104063 
1385.845124  	101.258777 
1387.276782  	101.154303 
1388.708440  	101.897972 
1390.140098  	102.805092 
1391.571757  	103.663728 
1393.003415  	104.173688 
1394.435073  	104.337900 
1395.866731  	104.432675 
1397.298389  	104.284168 
1398.730048  	103.875744 
1400.161706  	103.437911 
1401.593364  	102.807203 
1403.025022  	101.868674 
1404.456680  	100.783891 
1405.888339  	99.507367 
1407.319997  	98.318059 
1408.751655  	97.698031 
1410.183313  	97.644417 
1411.614971  	98.367705 
1413.046629  	99.697818 
1414.478288  	101.068083 
1415.909946  	102.457300 
1417.341604  	103.528621 
1418.773262  	104.215303 
1420.204920  	105.017638 
1421.636579  	105.341480 
1423.068237  	105.387085 
1424.499895  	105.604310 
1425.931553  	105.709776 
1427.363211  	105.705236 
1428.794870  	105.720549 
1430.226528  	105.645241 
1431.658186  	105.665693 
1433.089844  	105.618166 
1434.521502  	105.422928 
1435.953160  	105.342651 
1437.384819  	105.241370 
1438.816477  	105.031985 
1440.248135  	104.738764 
1441.679793  	104.308505 
1443.111451  	104.009363 
1444.543110  	103.685476 
1445.974768  	103.290247 
1447.406426  	103.021236 
1448.838084  	102.650843 
1450.269742  	102.367437 
1451.701400  	102.283451 
1453.133059  	102.215579 
1454.564717  	102.178876 
1455.996375  	101.981071 
1457.428033  	101.298041 
1458.859691  	100.672760 
1460.291350  	99.865589 
1461.723008  	99.106268 
1463.154666  	98.546182 
1464.586324  	98.144036 
1466.017982  	98.400369 
1467.449641  	98.703822 
1468.881299  	98.994025 
1470.312957  	99.340252 
1471.744615  	99.393556 
1473.176273  	99.768367 
1474.607931  	100.091783 
1476.039590  	99.876579 
1477.471248  	99.931837 
1478.902906  	99.800875 
1480.334564  	99.253161 
1481.766222  	98.834887 
1483.197881  	98.106347 
1484.629539  	97.011106 
1486.061197  	95.822581 
1487.492855  	93.974745 
1488.924513  	91.968875 
1490.356172  	89.803143 
1491.787830  	86.621597 
1493.219488  	83.896116 
1494.651146  	81.099389 
1496.082804  	77.315688 
1497.514462  	73.884163 
1498.946121  	70.657212 
1500.377779  	67.703474 
1501.809437  	66.295215 
1503.241095  	65.511420 
1504.672753  	65.521867 
1506.104412  	67.680415 
1507.536070  	72.304147 
1508.967728  	77.033280 
1510.399386  	81.699628 
1511.831044  	86.430178 
1513.262702  	91.080234 
1514.694361  	94.561831 
1516.126019  	97.034315 
1517.557677  	99.813501 
1518.989335  	101.526202 
1520.420993  	102.111932 
1521.852652  	103.380508 
1523.284310  	104.329482 
1524.715968  	104.539551 
1526.147626  	105.104129 
1527.579284  	105.469957 
1529.010943  	105.684469 
1530.442601  	106.022429 
1531.874259  	105.985534 
1533.305917  	106.013149 
1534.737575  	106.444218 
1536.169233  	106.455979 
1537.600892  	106.413621 
1539.032550  	106.370406 
1540.464208  	106.402653 
1541.895866  	106.844026 
1543.327524  	106.917637 
1544.759183  	106.989693 
1546.190841  	107.220173 
1547.622499  	107.149772 
1549.054157  	107.114462 
1550.485815  	107.255231 
1551.917473  	107.215749 
1553.349132  	107.169038 
1554.780790  	107.202350 
1556.212448  	107.146283 
1557.644106  	106.956754 
1559.075764  	106.807425 
1560.507423  	107.480130 
1561.939081  	107.520632 
1563.370739  	107.372077 
1564.802397  	107.401234 
1566.234055  	107.470203 
1567.665714  	107.358619 
1569.097372  	107.268987 
1570.529030  	107.306034 
1571.960688  	107.325015 
1573.392346  	107.238950 
1574.824004  	107.066444 
1576.255663  	107.024463 
1577.687321  	107.074331 
1579.118979  	106.968452 
1580.550637  	106.847917 
1581.982295  	106.651654 
1583.413954  	106.302924 
1584.845612  	105.865762 
1586.277270  	105.375307 
1587.708928  	104.784934 
1589.140586  	104.073728 
1590.572245  	103.449208 
1592.003903  	103.011796 
1593.435561  	102.836809 
1594.867219  	102.927131 
1596.298877  	103.050697 
1597.730535  	103.122295 
1599.162194  	103.045427 
1600.593852  	102.866647 
1602.025510  	102.782716 
1603.457168  	102.808410 
1604.888826  	103.058835 
1606.320485  	103.492675 
1607.752143  	103.998458 
1609.183801  	104.614823 
1610.615459  	105.158500 
1612.047117  	105.630754 
1613.478775  	105.953898 
1614.910434  	106.020646 
1616.342092  	106.122587 
1617.773750  	106.495541 
1619.205408  	106.699279 
1620.637066  	106.721903 
1622.068725  	106.661628 
1623.500383  	106.758104 
1624.932041  	106.974955 
1626.363699  	106.978309 
1627.795357  	106.976868 
1629.227016  	107.040409 
1630.658674  	106.990765 
1632.090332  	106.922868 
1633.521990  	106.796873 
1634.953648  	106.574753 
1636.385306  	106.667551 
1637.816965  	106.779177 
1639.248623  	106.677561 
1640.680281  	106.683148 
1642.111939  	106.683883 
1643.543597  	106.524192 
1644.975256  	106.345294 
1646.406914  	106.287988 
1647.838572  	106.452032 
1649.270230  	106.482615 
1650.701888  	106.299635 
1652.133547  	106.065217 
1653.565205  	106.305366 
1654.996863  	106.596541 
1656.428521  	106.519824 
1657.860179  	106.490320 
1659.291837  	106.526318 
1660.723496  	106.478176 
1662.155154  	106.416509 
1663.586812  	106.546440 
1665.018470  	106.624694 
1666.450128  	106.581888 
1667.881787  	106.516186 
1669.313445  	106.467634 
1670.745103  	106.640818 
1672.176761  	106.761662 
1673.608419  	106.654509 
1675.040077  	106.694294 
1676.471736  	106.920795 
1677.903394  	106.824188 
1679.335052  	106.666510 
1680.766710  	106.614337 
1682.198368  	106.493668 
1683.630027  	106.257896 
1685.061685  	106.606546 
1686.493343  	106.800555 
1687.925001  	106.595921 
1689.356659  	106.458556 
1690.788318  	106.490388 
1692.219976  	106.394256 
1693.651634  	106.168363 
1695.083292  	105.914553 
1696.514950  	105.962193 
1697.946608  	105.932383 
1699.378267  	105.468201 
1700.809925  	105.394355 
1702.241583  	105.621429 
1703.673241  	105.209681 
1705.104899  	104.970281 
1706.536558  	105.025682 
1707.968216  	104.790632 
1709.399874  	104.656599 
1710.831532  	104.482155 
1712.263190  	104.147239 
1713.694849  	103.925018 
1715.126507  	103.591903 
1716.558165  	103.308636 
1717.989823  	103.259766 
1719.421481  	102.963504 
1720.853139  	102.732439 
1722.284798  	102.411615 
1723.716456  	101.954143 
1725.148114  	101.673656 
1726.579772  	101.249830 
1728.011430  	100.784343 
1729.443089  	100.450271 
1730.874747  	99.974359 
1732.306405  	99.640417 
1733.738063  	99.336681 
1735.169721  	98.965244 
1736.601379  	98.697079 
1738.033038  	98.038604 
1739.464696  	97.395413 
1740.896354  	97.032869 
1742.328012  	96.174335 
1743.759670  	95.428586 
1745.191329  	94.667652 
1746.622987  	93.416683 
1748.054645  	92.398425 
1749.486303  	91.084823 
1750.917961  	89.316526 
1752.349620  	87.685781 
1753.781278  	85.417829 
1755.212936  	83.094234 
1756.644594  	80.524669 
1758.076252  	76.779735 
1759.507910  	73.439445 
1760.939569  	70.167178 
1762.371227  	65.951050 
1763.802885  	62.776812 
1765.234543  	60.579147 
1766.666201  	58.680705 
1768.097860  	58.073003 
1769.529518  	58.000592 
1770.961176  	58.102445 
1772.392834  	59.795815 
1773.824492  	61.491291 
1775.256150  	62.909920 
1776.687809  	65.213852 
1778.119467  	67.189743 
1779.551125  	69.214463 
1780.982783  	72.077020 
1782.414441  	74.443082 
1783.846100  	76.851247 
1785.277758  	79.710439 
1786.709416  	82.149698 
1788.141074  	84.805453 
1789.572732  	87.274748 
1791.004391  	89.348279 
1792.436049  	92.390195 
1793.867707  	94.853262 
1795.299365  	96.540030 
1796.731023  	98.530326 
1798.162681  	99.850003 
1799.594340  	101.090611 
1801.025998  	102.474577 
1802.457656  	103.187770 
1803.889314  	104.069858 
1805.320972  	104.656339 
1806.752631  	104.964811 
1808.184289  	105.638650 
1809.615947  	105.842442 
1811.047605  	106.053398 
1812.479263  	106.557267 
1813.910922  	106.572276 
1815.342580  	106.794151 
1816.774238  	107.029593 
1818.205896  	107.013381 
1819.637554  	107.298071 
1821.069212  	107.305331 
1822.500871  	107.295349 
1823.932529  	107.498311 
1825.364187  	107.390983 
1826.795845  	107.583037 
1828.227503  	107.639414 
1829.659162  	107.388563 
1831.090820  	107.732465 
1832.522478  	107.777345 
1833.954136  	107.706220 
1835.385794  	107.919009 
1836.817452  	107.766294 
1838.249111  	107.833784 
1839.680769  	108.049822 
1841.112427  	107.869500 
1842.544085  	107.930273 
1843.975743  	107.954317 
1845.407402  	107.936114 
1846.839060  	108.182579 
1848.270718  	108.012667 
1849.702376  	107.961187 
1851.134034  	108.047223 
1852.565693  	107.867169 
1853.997351  	108.086061 
1855.429009  	108.190509 
1856.860667  	107.960966 
1858.292325  	108.045004 
1859.723983  	108.002358 
1861.155642  	108.094981 
1862.587300  	108.356748 
1864.018958  	108.177593 
1865.450616  	108.163844 
1866.882274  	108.111456 
1868.313933  	107.856851 
1869.745591  	108.185185 
1871.177249  	108.151334 
1872.608907  	107.942833 
1874.040565  	108.100254 
1875.472224  	107.973929 
1876.903882  	107.939870 
1878.335540  	108.076082 
1879.767198  	107.971071 
1881.198856  	108.063186 
1882.630514  	108.015659 
1884.062173  	107.857451 
1885.493831  	107.928691 
1886.925489  	107.704372 
1888.357147  	107.617289 
1889.788805  	107.738398 
1891.220464  	107.483526 
1892.652122  	107.408760 
1894.083780  	107.327236 
1895.515438  	107.149993 
1896.947096  	107.292831 
1898.378754  	107.341614 
1899.810413  	107.432483 
1901.242071  	107.502511 
1902.673729  	107.261468 
1904.105387  	107.321660 
1905.537045  	107.450042 
1906.968704  	107.497182 
1908.400362  	107.737863 
1909.832020  	107.687703 
1911.263678  	107.803982 
1912.695336  	108.122329 
1914.126995  	108.089986 
1915.558653  	108.348889 
1916.990311  	108.476606 
1918.421969  	108.216690 
1919.853627  	108.471981 
1921.285285  	108.328232 
1922.716944  	108.059689 
1924.148602  	108.440999 
1925.580260  	108.306568 
1927.011918  	108.181146 
1928.443576  	108.482038 
1929.875235  	108.490792 
1931.306893  	108.665018 
1932.738551  	108.665140 
1934.170209  	108.508569 
1935.601867  	108.860398 
1937.033525  	108.689502 
1938.465184  	108.270601 
1939.896842  	108.354596 
1941.328500  	108.314527 
1942.760158  	108.447984 
1944.191816  	108.614148 
1945.623475  	108.640560 
1947.055133  	108.891348 
1948.486791  	108.517354 
1949.918449  	108.059090 
1951.350107  	108.221637 
1952.781766  	108.325073 
1954.213424  	108.476416 
1955.645082  	108.421930 
1957.076740  	108.436418 
1958.508398  	109.018596 
1959.940056  	108.646211 
1961.371715  	108.059985 
1962.803373  	108.350858 
1964.235031  	108.131687 
1965.666689  	108.034135 
1967.098347  	108.223152 
1968.530006  	108.006913 
1969.961664  	108.035116 
1971.393322  	107.705265 
1972.824980  	107.930275 
1974.256638  	108.918920 
1975.688297  	108.263680 
1977.119955  	107.483692 
1978.551613  	107.937205 
1979.983271  	108.190756 
1981.414929  	108.330146 
1982.846587  	108.237086 
1984.278246  	108.395394 
1985.709904  	108.810521 
1987.141562  	108.438544 
1988.573220  	108.518849 
1990.004878  	108.757631 
1991.436537  	108.113261 
1992.868195  	108.153703 
1994.299853  	108.212127 
1995.731511  	107.918326 
1997.163169  	108.248101 
1998.594827  	108.205777 
2000.026486  	108.309654 
2001.458144  	108.649727 
2002.889802  	107.987202 
2004.321460  	107.878888 
2005.753118  	108.205388 
2007.184777  	107.984020 
2008.616435  	108.184935 
2010.048093  	108.028172 
2011.479751  	108.154229 
2012.911409  	108.747656 
2014.343068  	108.085533 
2015.774726  	107.890093 
2017.206384  	108.211240 
2018.638042  	107.892673 
2020.069700  	108.404407 
2021.501358  	108.453689 
2022.933017  	108.031885 
2024.364675  	108.639928 
2025.796333  	108.452589 
2027.227991  	108.246879 
2028.659649  	108.644621 
2030.091308  	108.090341 
2031.522966  	107.989977 
2032.954624  	108.035028 
2034.386282  	107.725341 
2035.817940  	108.229990 
2037.249599  	108.100561 
2038.681257  	107.690710 
2040.112915  	107.937211 
2041.544573  	107.721729 
2042.976231  	107.745551 
2044.407889  	108.045353 
2045.839548  	107.953032 
2047.271206  	108.082102 
2048.702864  	108.051793 
2050.134522  	107.911811 
2051.566180  	107.874844 
2052.997839  	107.654375 
2054.429497  	107.762095 
2055.861155  	107.835443 
2057.292813  	107.919139 
2058.724471  	108.491585 
2060.156129  	108.427603 
2061.587788  	108.157448 
2063.019446  	108.543434 
2064.451104  	108.623239 
2065.882762  	108.667230 
2067.314420  	108.763826 
2068.746079  	108.485717 
2070.177737  	108.468932 
2071.609395  	108.289873 
2073.041053  	108.149346 
2074.472711  	108.580423 
2075.904370  	108.456304 
2077.336028  	108.184406 
2078.767686  	108.532293 
2080.199344  	108.744807 
2081.631002  	108.822207 
2083.062660  	108.670531 
2084.494319  	108.295304 
2085.925977  	108.262717 
2087.357635  	108.242022 
2088.789293  	108.305632 
2090.220951  	108.520726 
2091.652610  	108.430103 
2093.084268  	108.494311 
2094.515926  	108.619992 
2095.947584  	108.632446 
2097.379242  	108.936224 
2098.810901  	108.813010 
2100.242559  	108.495061 
2101.674217  	108.651631 
2103.105875  	108.560477 
2104.537533  	108.567650 
2105.969191  	108.967886 
2107.400850  	109.037961 
2108.832508  	108.943177 
2110.264166  	108.746543 
2111.695824  	108.636256 
2113.127482  	108.864594 
2114.559141  	108.826496 
2115.990799  	108.730038 
2117.422457  	108.774797 
2118.854115  	108.685743 
2120.285773  	108.907839 
2121.717431  	109.017572 
2123.149090  	108.757544 
2124.580748  	108.849540 
2126.012406  	108.762245 
2127.444064  	108.387817 
2128.875722  	108.366398 
2130.307381  	108.411736 
2131.739039  	108.593764 
2133.170697  	108.676515 
2134.602355  	108.299995 
2136.034013  	108.262380 
2137.465672  	108.332642 
2138.897330  	108.266046 
2140.328988  	108.508131 
2141.760646  	108.503058 
2143.192304  	108.274267 
2144.623962  	108.062885 
2146.055621  	107.963947 
2147.487279  	108.408614 
2148.918937  	108.369556 
2150.350595  	107.809891 
2151.782253  	107.861346 
2153.213912  	107.851507 
2154.645570  	107.862453 
2156.077228  	108.057647 
2157.508886  	107.642863 
2158.940544  	107.442376 
2160.372202  	107.311632 
2161.803861  	107.269982 
2163.235519  	108.090720 
2164.667177  	108.494759 
2166.098835  	108.216991 
2167.530493  	108.102891 
2168.962152  	108.396326 
2170.393810  	109.057433 
2171.825468  	108.962375 
2173.257126  	108.678458 
2174.688784  	109.133346 
2176.120443  	108.761014 
2177.552101  	108.162888 
2178.983759  	108.365200 
2180.415417  	108.281698 
2181.847075  	108.405236 
2183.278733  	108.446588 
2184.710392  	107.779216 
2186.142050  	107.835228 
2187.573708  	108.101495 
2189.005366  	107.837539 
2190.437024  	107.982627 
2191.868683  	108.306349 
2193.300341  	108.252813 
2194.731999  	107.912717 
2196.163657  	107.764749 
2197.595315  	108.107067 
2199.026974  	108.137973 
2200.458632  	107.887370 
2201.890290  	107.936346 
2203.321948  	108.064941 
2204.753606  	108.387511 
2206.185264  	108.514503 
2207.616923  	108.299709 
2209.048581  	108.464651 
2210.480239  	108.460014 
2211.911897  	108.228968 
2213.343555  	108.341477 
2214.775214  	108.203817 
2216.206872  	108.050814 
2217.638530  	108.151887 
2219.070188  	108.128614 
2220.501846  	108.157313 
2221.933504  	107.950646 
2223.365163  	107.808531 
2224.796821  	108.144743 
2226.228479  	108.010335 
2227.660137  	107.715695 
2229.091795  	107.872451 
2230.523454  	107.964781 
2231.955112  	108.168770 
2233.386770  	108.279316 
2234.818428  	108.109995 
2236.250086  	108.181078 
2237.681745  	108.113939 
2239.113403  	108.021084 
2240.545061  	108.196046 
2241.976719  	108.120362 
2243.408377  	108.121257 
2244.840035  	108.226784 
2246.271694  	108.187307 
2247.703352  	108.401564 
2249.135010  	108.373126 
2250.566668  	108.119913 
2251.998326  	108.268231 
2253.429985  	108.330042 
2254.861643  	108.328784 
2256.293301  	108.391817 
2257.724959  	108.235111 
2259.156617  	108.318413 
2260.588276  	108.492958 
2262.019934  	108.514366 
2263.451592  	108.707308 
2264.883250  	108.776559 
2266.314908  	108.844964 
2267.746566  	109.031099 
2269.178225  	108.914319 
2270.609883  	108.821603 
2272.041541  	108.732023 
2273.473199  	108.602050 
2274.904857  	108.900740 
2276.336516  	109.092807 
2277.768174  	109.033023 
2279.199832  	109.193951 
2280.631490  	109.140332 
2282.063148  	108.900888 
2283.494806  	108.892145 
2284.926465  	108.995387 
2286.358123  	109.089359 
2287.789781  	108.991125 
2289.221439  	108.899750 
2290.653097  	108.976002 
2292.084756  	108.814637 
2293.516414  	108.687652 
2294.948072  	108.811848 
2296.379730  	108.733230 
2297.811388  	108.648403 
2299.243047  	108.697695 
2300.674705  	108.536524 
2302.106363  	108.281602 
2303.538021  	108.145709 
2304.969679  	108.151276 
2306.401337  	108.106974 
2307.832996  	107.842881 
2309.264654  	107.665169 
2310.696312  	107.586229 
2312.127970  	107.399775 
2313.559628  	107.314136 
2314.991287  	107.318769 
2316.422945  	107.280546 
2317.854603  	107.130221 
2319.286261  	106.726227 
2320.717919  	106.356533 
2322.149577  	106.216189 
2323.581236  	106.140579 
2325.012894  	106.113204 
2326.444552  	105.980424 
2327.876210  	105.707927 
2329.307868  	105.514156 
2330.739527  	105.420397 
2332.171185  	105.436283 
2333.602843  	105.522136 
2335.034501  	105.543598 
2336.466159  	105.494766 
2337.897818  	105.366741 
2339.329476  	105.312196 
2340.761134  	105.301050 
2342.192792  	105.137715 
2343.624450  	105.133760 
2345.056108  	105.355224 
2346.487767  	105.794177 
2347.919425  	106.514558 
2349.351083  	106.742037 
2350.782741  	106.170371 
2352.214399  	105.545028 
2353.646058  	105.219171 
2355.077716  	104.748054 
2356.509374  	104.311798 
2357.941032  	104.065696 
2359.372690  	103.909007 
2360.804349  	103.922058 
2362.236007  	104.044330 
2363.667665  	104.295254 
2365.099323  	104.506792 
2366.530981  	104.566380 
2367.962639  	104.781573 
2369.394298  	105.161116 
2370.825956  	105.591891 
2372.257614  	106.039709 
2373.689272  	106.424909 
2375.120930  	106.799865 
2376.552589  	107.066114 
2377.984247  	107.297737 
2379.415905  	107.718240 
2380.847563  	108.107932 
2382.279221  	108.374646 
2383.710879  	108.647735 
2385.142538  	108.854562 
2386.574196  	109.012837 
2388.005854  	109.064293 
2389.437512  	108.967247 
2390.869170  	108.996927 
2392.300829  	109.116125 
2393.732487  	109.103311 
2395.164145  	109.062290 
2396.595803  	109.045304 
2398.027461  	109.038509 
2399.459120  	109.091665 
2400.890778  	109.124991 
2402.322436  	109.038915 
2403.754094  	108.906890 
2405.185752  	108.892570 
2406.617410  	108.953788 
2408.049069  	108.964493 
2409.480727  	108.941794 
2410.912385  	108.870255 
2412.344043  	108.880442 
2413.775701  	109.052088 
2415.207360  	109.078995 
2416.639018  	108.986626 
2418.070676  	109.015648 
2419.502334  	109.024314 
2420.933992  	108.977019 
2422.365651  	108.924802 
2423.797309  	108.896707 
2425.228967  	109.021336 
2426.660625  	109.145595 
2428.092283  	109.195714 
2429.523941  	109.250781 
2430.955600  	109.159631 
2432.387258  	109.108893 
2433.818916  	109.242425 
2435.250574  	109.231209 
2436.682232  	109.122968 
2438.113891  	109.112032 
2439.545549  	109.141543 
2440.977207  	109.186651 
2442.408865  	109.133886 
2443.840523  	109.030500 
2445.272181  	109.040388 
2446.703840  	109.097264 
2448.135498  	109.194112 
2449.567156  	109.264724 
2450.998814  	109.210490 
2452.430472  	109.181503 
2453.862131  	109.192857 
2455.293789  	109.215897 
2456.725447  	109.298368 
2458.157105  	109.322203 
2459.588763  	109.260259 
2461.020422  	109.186987 
2462.452080  	109.180984 
2463.883738  	109.273716 
2465.315396  	109.253138 
2466.747054  	109.144591 
2468.178712  	109.184051 
2469.610371  	109.240322 
2471.042029  	109.215993 
2472.473687  	109.206000 
2473.905345  	109.203960 
2475.337003  	109.189723 
2476.768662  	109.135081 
2478.200320  	109.108543 
2479.631978  	109.172267 
2481.063636  	109.225862 
2482.495294  	109.234585 
2483.926953  	109.153064 
2485.358611  	109.075566 
2486.790269  	109.208298 
2488.221927  	109.332997 
2489.653585  	109.337865 
2491.085243  	109.402216 
2492.516902  	109.393598 
2493.948560  	109.305131 
2495.380218  	109.276287 
2496.811876  	109.276588 
2498.243534  	109.378222 
2499.675193  	109.480984 
2501.106851  	109.450585 
2502.538509  	109.418743 
2503.970167  	109.376478 
2505.401825  	109.340329 
2506.833483  	109.389299 
2508.265142  	109.472737 
2509.696800  	109.548254 
2511.128458  	109.474974 
2512.560116  	109.398868 
2513.991774  	109.551034 
2515.423433  	109.585981 
2516.855091  	109.465420 
2518.286749  	109.472144 
2519.718407  	109.486078 
2521.150065  	109.552592 
2522.581724  	109.641953 
2524.013382  	109.557634 
2525.445040  	109.496106 
2526.876698  	109.497275 
2528.308356  	109.535221 
2529.740014  	109.638929 
2531.171673  	109.595000 
2532.603331  	109.571768 
2534.034989  	109.651328 
2535.466647  	109.593687 
2536.898305  	109.651041 
2538.329964  	109.775166 
2539.761622  	109.688289 
2541.193280  	109.656685 
2542.624938  	109.629659 
2544.056596  	109.519227 
2545.488254  	109.554430 
2546.919913  	109.623751 
2548.351571  	109.688942 
2549.783229  	109.748757 
2551.214887  	109.706922 
2552.646545  	109.746017 
2554.078204  	109.792074 
2555.509862  	109.736968 
2556.941520  	109.734752 
2558.373178  	109.710202 
2559.804836  	109.738750 
2561.236495  	109.833855 
2562.668153  	109.761430 
2564.099811  	109.714713 
2565.531469  	109.720871 
2566.963127  	109.606931 
2568.394785  	109.605827 
2569.826444  	109.719246 
2571.258102  	109.808712 
2572.689760  	109.865672 
2574.121418  	109.773897 
2575.553076  	109.702816 
2576.984735  	109.737109 
2578.416393  	109.708633 
2579.848051  	109.756494 
2581.279709  	109.825046 
2582.711367  	109.747932 
2584.143026  	109.756358 
2585.574684  	109.837162 
2587.006342  	109.776090 
2588.438000  	109.659973 
2589.869658  	109.641728 
2591.301316  	109.725163 
2592.732975  	109.771914 
2594.164633  	109.760242 
2595.596291  	109.797997 
2597.027949  	109.825785 
2598.459607  	109.831903 
2599.891266  	109.894147 
2601.322924  	109.953311 
2602.754582  	109.963058 
2604.186240  	109.929369 
2605.617898  	109.867122 
2607.049556  	109.793208 
2608.481215  	109.719469 
2609.912873  	109.718546 
2611.344531  	109.777941 
2612.776189  	109.843199 
2614.207847  	109.928415 
2615.639506  	109.943075 
2617.071164  	109.862083 
2618.502822  	109.801638 
2619.934480  	109.786068 
2621.366138  	109.810232 
2622.797797  	109.848003 
2624.229455  	109.895070 
2625.661113  	109.972419 
2627.092771  	109.989678 
2628.524429  	109.982862 
2629.956087  	110.004007 
2631.387746  	109.950799 
2632.819404  	109.935984 
2634.251062  	110.015729 
2635.682720  	110.032072 
2637.114378  	110.004208 
2638.546037  	109.942497 
2639.977695  	109.896715 
2641.409353  	109.965298 
2642.841011  	109.965497 
2644.272669  	109.897896 
2645.704328  	109.934424 
2647.135986  	109.951671 
2648.567644  	109.925816 
2649.999302  	109.928493 
2651.430960  	109.917755 
2652.862618  	109.945189 
2654.294277  	109.978044 
2655.725935  	109.956968 
2657.157593  	109.942255 
2658.589251  	109.910759 
2660.020909  	109.862032 
2661.452568  	109.809072 
2662.884226  	109.759855 
2664.315884  	109.806074 
2665.747542  	109.856429 
2667.179200  	109.824335 
2668.610858  	109.829388 
2670.042517  	109.848404 
2671.474175  	109.846425 
2672.905833  	109.843128 
2674.337491  	109.792379 
2675.769149  	109.800364 
2677.200808  	109.876504 
2678.632466  	109.889215 
2680.064124  	109.890351 
2681.495782  	109.867578 
2682.927440  	109.814146 
2684.359099  	109.842502 
2685.790757  	109.856623 
2687.222415  	109.809113 
2688.654073  	109.812641 
2690.085731  	109.822733 
2691.517389  	109.787238 
2692.949048  	109.753813 
2694.380706  	109.769768 
2695.812364  	109.815862 
2697.244022  	109.816632 
2698.675680  	109.812652 
2700.107339  	109.837015 
2701.538997  	109.839147 
2702.970655  	109.851732 
2704.402313  	109.851589 
2705.833971  	109.812640 
2707.265630  	109.793516 
2708.697288  	109.763137 
2710.128946  	109.740253 
2711.560604  	109.740582 
2712.992262  	109.694729 
2714.423920  	109.684824 
2715.855579  	109.726496 
2717.287237  	109.743485 
2718.718895  	109.795852 
2720.150553  	109.835435 
2721.582211  	109.822002 
2723.013870  	109.844789 
2724.445528  	109.843829 
2725.877186  	109.793962 
2727.308844  	109.765419 
2728.740502  	109.741100 
2730.172160  	109.720779 
2731.603819  	109.703431 
2733.035477  	109.708207 
2734.467135  	109.762129 
2735.898793  	109.797068 
2737.330451  	109.825439 
2738.762110  	109.853821 
2740.193768  	109.803148 
2741.625426  	109.755795 
2743.057084  	109.792662 
2744.488742  	109.852200 
2745.920401  	109.856880 
2747.352059  	109.783175 
2748.783717  	109.766732 
2750.215375  	109.840865 
2751.647033  	109.852425 
2753.078691  	109.832545 
2754.510350  	109.829809 
2755.942008  	109.803920 
2757.373666  	109.800249 
2758.805324  	109.787966 
2760.236982  	109.768288 
2761.668641  	109.788397 
2763.100299  	109.752285 
2764.531957  	109.700964 
2765.963615  	109.717469 
2767.395273  	109.696141 
2768.826931  	109.637259 
2770.258590  	109.601953 
2771.690248  	109.572922 
2773.121906  	109.570950 
2774.553564  	109.590506 
2775.985222  	109.593626 
2777.416881  	109.565329 
2778.848539  	109.548340 
2780.280197  	109.606276 
2781.711855  	109.653761 
2783.143513  	109.626364 
2784.575172  	109.620911 
2786.006830  	109.662915 
2787.438488  	109.698229 
2788.870146  	109.700818 
2790.301804  	109.699141 
2791.733462  	109.708048 
2793.165121  	109.660416 
2794.596779  	109.623532 
2796.028437  	109.663845 
2797.460095  	109.653781 
2798.891753  	109.634120 
2800.323412  	109.675136 
2801.755070  	109.679202 
2803.186728  	109.683006 
2804.618386  	109.685036 
2806.050044  	109.647382 
2807.481703  	109.660595 
2808.913361  	109.665214 
2810.345019  	109.643464 
2811.776677  	109.668804 
2813.208335  	109.651977 
2814.639993  	109.630864 
2816.071652  	109.645698 
2817.503310  	109.607796 
2818.934968  	109.611067 
2820.366626  	109.650137 
2821.798284  	109.622819 
2823.229943  	109.607449 
2824.661601  	109.604681 
2826.093259  	109.611237 
2827.524917  	109.635827 
2828.956575  	109.580600 
2830.388233  	109.540049 
2831.819892  	109.591928 
2833.251550  	109.620895 
2834.683208  	109.616375 
2836.114866  	109.571956 
2837.546524  	109.505299 
2838.978183  	109.499824 
2840.409841  	109.498987 
2841.841499  	109.475440 
2843.273157  	109.449227 
2844.704815  	109.395677 
2846.136474  	109.342257 
2847.568132  	109.269418 
2848.999790  	109.207684 
2850.431448  	109.194790 
2851.863106  	109.117956 
2853.294764  	109.038736 
2854.726423  	109.014881 
2856.158081  	108.912051 
2857.589739  	108.823517 
2859.021397  	108.801722 
2860.453055  	108.683966 
2861.884714  	108.469683 
2863.316372  	108.200941 
2864.748030  	107.937460 
2866.179688  	107.711443 
2867.611346  	107.398818 
2869.043005  	107.084980 
2870.474663  	106.885043 
2871.906321  	106.690295 
2873.337979  	106.588376 
2874.769637  	106.655598 
2876.201295  	106.748319 
2877.632954  	106.883950 
2879.064612  	107.096056 
2880.496270  	107.319626 
2881.927928  	107.519256 
2883.359586  	107.618951 
2884.791245  	107.670235 
2886.222903  	107.756524 
2887.654561  	107.785494 
2889.086219  	107.748943 
2890.517877  	107.702002 
2891.949535  	107.664743 
2893.381194  	107.704190 
2894.812852  	107.769772 
2896.244510  	107.803491 
2897.676168  	107.868159 
2899.107826  	107.901147 
2900.539485  	107.857852 
2901.971143  	107.840054 
2903.402801  	107.823905 
2904.834459  	107.732074 
2906.266117  	107.617364 
2907.697776  	107.542626 
2909.129434  	107.491283 
2910.561092  	107.417864 
2911.992750  	107.355400 
2913.424408  	107.358496 
2914.856066  	107.376489 
2916.287725  	107.413536 
2917.719383  	107.505945 
2919.151041  	107.512500 
2920.582699  	107.380450 
2922.014357  	107.240995 
2923.446016  	107.083847 
2924.877674  	106.868291 
2926.309332  	106.646381 
2927.740990  	106.405634 
2929.172648  	106.178353 
2930.604306  	106.002631 
2932.035965  	105.846249 
2933.467623  	105.775257 
2934.899281  	105.778289 
2936.330939  	105.750794 
2937.762597  	105.761928 
2939.194256  	105.838063 
2940.625914  	105.898978 
2942.057572  	105.961531 
2943.489230  	106.004260 
2944.920888  	106.013394 
2946.352547  	106.056976 
2947.784205  	106.076644 
2949.215863  	105.992818 
2950.647521  	105.825098 
2952.079179  	105.585791 
2953.510837  	105.313096 
2954.942496  	105.001166 
2956.374154  	104.536948 
2957.805812  	103.889382 
2959.237470  	103.174100 
2960.669128  	102.477244 
2962.100787  	101.775157 
2963.532445  	101.102975 
2964.964103  	100.557578 
2966.395761  	100.185011 
2967.827419  	100.041604 
2969.259078  	100.092852 
2970.690736  	100.225987 
2972.122394  	100.482393 
2973.554052  	100.951037 
2974.985710  	101.554303 
2976.417368  	102.130435 
2977.849027  	102.661894 
2979.280685  	103.263995 
2980.712343  	103.909063 
2982.144001  	104.483876 
2983.575659  	105.024726 
2985.007318  	105.536051 
2986.438976  	105.988286 
2987.870634  	106.463906 
2989.302292  	106.903380 
2990.733950  	107.228829 
2992.165608  	107.538940 
2993.597267  	107.809559 
2995.028925  	108.039311 
2996.460583  	108.309952 
2997.892241  	108.524419 
2999.323899  	108.693323 
3000.755558  	108.876945 
3002.187216  	108.986201 
3003.618874  	109.088523 
3005.050532  	109.224184 
3006.482190  	109.332491 
3007.913849  	109.469305 
3009.345507  	109.558351 
3010.777165  	109.562461 
3012.208823  	109.624752 
3013.640481  	109.720779 
3015.072139  	109.793025 
3016.503798  	109.811809 
3017.935456  	109.761140 
3019.367114  	109.786982 
3020.798772  	109.863938 
3022.230430  	109.857654 
3023.662089  	109.826824 
3025.093747  	109.796169 
3026.525405  	109.766605 
3027.957063  	109.701635 
3029.388721  	109.529965 
3030.820380  	109.366170 
3032.252038  	109.201855 
3033.683696  	108.969411 
3035.115354  	108.823939 
3036.547012  	108.733567 
3037.978670  	108.614405 
3039.410329  	108.532315 
3040.841987  	108.425643 
3042.273645  	108.359742 
3043.705303  	108.439584 
3045.136961  	108.529347 
3046.568620  	108.614717 
3048.000278  	108.729395 
3049.431936  	108.814750 
3050.863594  	108.883512 
3052.295252  	108.845791 
3053.726910  	108.704647 
3055.158569  	108.643433 
3056.590227  	108.625070 
3058.021885  	108.589604 
3059.453543  	108.598033 
3060.885201  	108.608134 
3062.316860  	108.610125 
3063.748518  	108.643825 
3065.180176  	108.706931 
3066.611834  	108.807230 
3068.043492  	108.919136 
3069.475151  	109.026123 
3070.906809  	109.120137 
3072.338467  	109.183628 
3073.770125  	109.270139 
3075.201783  	109.344725 
3076.633441  	109.330584 
3078.065100  	109.358439 
3079.496758  	109.480417 
3080.928416  	109.528677 
3082.360074  	109.530030 
3083.791732  	109.624814 
3085.223391  	109.707019 
3086.655049  	109.729130 
3088.086707  	109.822743 
3089.518365  	109.885312 
3090.950023  	109.849013 
3092.381682  	109.919164 
3093.813340  	110.031397 
3095.244998  	110.025179 
3096.676656  	110.026927 
3098.108314  	110.034989 
3099.539972  	109.996162 
3100.971631  	110.013083 
3102.403289  	110.032996 
3103.834947  	110.015951 
3105.266605  	110.062169 
3106.698263  	110.126045 
3108.129922  	110.117137 
3109.561580  	110.069733 
3110.993238  	110.044313 
3112.424896  	110.041196 
3113.856554  	110.049833 
3115.288212  	110.078761 
3116.719871  	110.083960 
3118.151529  	110.087329 
3119.583187  	110.139999 
3121.014845  	110.150578 
3122.446503  	110.137115 
3123.878162  	110.159055 
3125.309820  	110.153743 
3126.741478  	110.219496 
3128.173136  	110.345561 
3129.604794  	110.338995 
3131.036453  	110.302131 
3132.468111  	110.352132 
3133.899769  	110.437804 
3135.331427  	110.496310 
3136.763085  	110.422852 
3138.194743  	110.358251 
3139.626402  	110.438053 
3141.058060  	110.465639 
3142.489718  	110.450393 
3143.921376  	110.499490 
3145.353034  	110.537108 
3146.784693  	110.556732 
3148.216351  	110.513276 
3149.648009  	110.472094 
3151.079667  	110.534139 
3152.511325  	110.515094 
3153.942983  	110.473666 
3155.374642  	110.546878 
3156.806300  	110.541296 
3158.237958  	110.515002 
3159.669616  	110.574742 
3161.101274  	110.597274 
3162.532933  	110.594157 
3163.964591  	110.530190 
3165.396249  	110.467147 
3166.827907  	110.558760 
3168.259565  	110.603551 
3169.691224  	110.546516 
3171.122882  	110.544037 
3172.554540  	110.536229 
3173.986198  	110.569108 
3175.417856  	110.640805 
3176.849514  	110.615777 
3178.281173  	110.593513 
3179.712831  	110.583604 
3181.144489  	110.526646 
3182.576147  	110.534473 
3184.007805  	110.569295 
3185.439464  	110.551851 
3186.871122  	110.497843 
3188.302780  	110.415281 
3189.734438  	110.414226 
3191.166096  	110.508327 
3192.597755  	110.561475 
3194.029413  	110.570095 
3195.461071  	110.593480 
3196.892729  	110.653405 
3198.324387  	110.681061 
3199.756045  	110.579262 
3201.187704  	110.487620 
3202.619362  	110.529006 
3204.051020  	110.554795 
3205.482678  	110.508909 
3206.914336  	110.504698 
3208.345995  	110.517322 
3209.777653  	110.496074 
3211.209311  	110.544383 
3212.640969  	110.643630 
3214.072627  	110.657323 
3215.504285  	110.659142 
3216.935944  	110.687876 
3218.367602  	110.620940 
3219.799260  	110.546912 
3221.230918  	110.573568 
3222.662576  	110.619683 
3224.094235  	110.670345 
3225.525893  	110.716406 
3226.957551  	110.720503 
3228.389209  	110.708916 
3229.820867  	110.684005 
3231.252526  	110.670670 
3232.684184  	110.674589 
3234.115842  	110.655042 
3235.547500  	110.659983 
3236.979158  	110.694827 
3238.410816  	110.693188 
3239.842475  	110.667913 
3241.274133  	110.656607 
3242.705791  	110.668952 
3244.137449  	110.667896 
3245.569107  	110.641186 
3247.000766  	110.630705 
3248.432424  	110.592839 
3249.864082  	110.554498 
3251.295740  	110.621829 
3252.727398  	110.719270 
3254.159057  	110.759005 
3255.590715  	110.733780 
3257.022373  	110.657732 
3258.454031  	110.652332 
3259.885689  	110.738386 
3261.317347  	110.796882 
3262.749006  	110.766317 
3264.180664  	110.643734 
3265.612322  	110.575358 
3267.043980  	110.650699 
3268.475638  	110.692371 
3269.907297  	110.642280 
3271.338955  	110.611535 
3272.770613  	110.648586 
3274.202271  	110.733032 
3275.633929  	110.764275 
3277.065587  	110.735033 
3278.497246  	110.698730 
3279.928904  	110.649010 
3281.360562  	110.695233 
3282.792220  	110.796150 
3284.223878  	110.772170 
3285.655537  	110.744904 
3287.087195  	110.749226 
3288.518853  	110.657578 
3289.950511  	110.594779 
3291.382169  	110.617640 
3292.813828  	110.672295 
3294.245486  	110.763773 
3295.677144  	110.753327 
3297.108802  	110.665718 
3298.540460  	110.704907 
3299.972118  	110.752427 
3301.403777  	110.667121 
3302.835435  	110.606124 
3304.267093  	110.639875 
3305.698751  	110.672704 
3307.130409  	110.705599 
3308.562068  	110.767015 
3309.993726  	110.803637 
3311.425384  	110.813492 
3312.857042  	110.804420 
3314.288700  	110.752734 
3315.720359  	110.728990 
3317.152017  	110.736836 
3318.583675  	110.715485 
3320.015333  	110.728829 
3321.446991  	110.763900 
3322.878649  	110.774584 
3324.310308  	110.818424 
3325.741966  	110.829128 
3327.173624  	110.767946 
3328.605282  	110.745246 
3330.036940  	110.769648 
3331.468599  	110.790921 
3332.900257  	110.778596 
3334.331915  	110.765152 
3335.763573  	110.803206 
3337.195231  	110.783828 
3338.626889  	110.719951 
3340.058548  	110.769117 
3341.490206  	110.829752 
3342.921864  	110.806159 
3344.353522  	110.781709 
3345.785180  	110.766341 
3347.216839  	110.771045 
3348.648497  	110.798798 
3350.080155  	110.792934 
3351.511813  	110.770800 
3352.943471  	110.794106 
3354.375130  	110.862948 
3355.806788  	110.852815 
3357.238446  	110.730096 
3358.670104  	110.703671 
3360.101762  	110.820157 
3361.533420  	110.913722 
3362.965079  	110.928316 
3364.396737  	110.925133 
3365.828395  	110.966486 
3367.260053  	110.952067 
3368.691711  	110.802153 
3370.123370  	110.705359 
3371.555028  	110.740460 
3372.986686  	110.829287 
3374.418344  	110.891215 
3375.850002  	110.817238 
3377.281660  	110.788364 
3378.713319  	110.893082 
3380.144977  	110.845905 
3381.576635  	110.775129 
3383.008293  	110.885723 
3384.439951  	110.948790 
3385.871610  	110.956516 
3387.303268  	110.960523 
3388.734926  	110.861943 
3390.166584  	110.777504 
3391.598242  	110.742175 
3393.029901  	110.721536 
3394.461559  	110.768758 
3395.893217  	110.788716 
3397.324875  	110.767332 
3398.756533  	110.760827 
3400.188191  	110.740690 
3401.619850  	110.752878 
3403.051508  	110.762010 
3404.483166  	110.748956 
3405.914824  	110.803408 
3407.346482  	110.836206 
3408.778141  	110.825166 
3410.209799  	110.871450 
3411.641457  	110.899716 
3413.073115  	110.872617 
3414.504773  	110.866762 
3415.936432  	110.902250 
3417.368090  	110.904461 
3418.799748  	110.808711 
3420.231406  	110.757320 
3421.663064  	110.818462 
3423.094722  	110.829618 
3424.526381  	110.809166 
3425.958039  	110.811276 
3427.389697  	110.771694 
3428.821355  	110.735965 
3430.253013  	110.750941 
3431.684672  	110.777892 
3433.116330  	110.765902 
3434.547988  	110.746640 
3435.979646  	110.807620 
3437.411304  	110.844202 
3438.842962  	110.806553 
3440.274621  	110.822284 
3441.706279  	110.825025 
3443.137937  	110.798216 
3444.569595  	110.823170 
3446.001253  	110.793475 
3447.432912  	110.752125 
3448.864570  	110.808351 
3450.296228  	110.866049 
3451.727886  	110.875282 
3453.159544  	110.798757 
3454.591203  	110.722632 
3456.022861  	110.763575 
3457.454519  	110.766483 
3458.886177  	110.724828 
3460.317835  	110.760234 
3461.749493  	110.784705 
3463.181152  	110.820315 
3464.612810  	110.878647 
3466.044468  	110.860062 
3467.476126  	110.828598 
3468.907784  	110.796454 
3470.339443  	110.758097 
3471.771101  	110.791878 
3473.202759  	110.824913 
3474.634417  	110.809004 
3476.066075  	110.799602 
3477.497734  	110.790868 
3478.929392  	110.738885 
3480.361050  	110.609012 
3481.792708  	110.529814 
3483.224366  	110.597960 
3484.656024  	110.658802 
3486.087683  	110.708994 
3487.519341  	110.777086 
3488.950999  	110.736307 
3490.382657  	110.692535 
3491.814315  	110.765451 
3493.245974  	110.835627 
3494.677632  	110.816009 
3496.109290  	110.745909 
3497.540948  	110.727854 
3498.972606  	110.728201 
3500.404264  	110.676914 
3501.835923  	110.711249 
3503.267581  	110.801162 
3504.699239  	110.740530 
3506.130897  	110.656620 
3507.562555  	110.670835 
3508.994214  	110.675700 
3510.425872  	110.648731 
3511.857530  	110.682749 
3513.289188  	110.738018 
3514.720846  	110.692871 
3516.152505  	110.646154 
3517.584163  	110.715439 
3519.015821  	110.722457 
3520.447479  	110.590568 
3521.879137  	110.488771 
3523.310795  	110.508066 
3524.742454  	110.564777 
3526.174112  	110.491204 
3527.605770  	110.415722 
3529.037428  	110.512487 
3530.469086  	110.595327 
3531.900745  	110.647502 
3533.332403  	110.684854 
3534.764061  	110.555896 
3536.195719  	110.505829 
3537.627377  	110.628343 
3539.059035  	110.592883 
3540.490694  	110.555542 
3541.922352  	110.619871 
3543.354010  	110.543425 
3544.785668  	110.469531 
3546.217326  	110.587236 
3547.648985  	110.724217 
3549.080643  	110.770095 
3550.512301  	110.729268 
3551.943959  	110.662221 
3553.375617  	110.665592 
3554.807276  	110.695205 
3556.238934  	110.653746 
3557.670592  	110.603141 
3559.102250  	110.681451 
3560.533908  	110.793800 
3561.965566  	110.788429 
3563.397225  	110.717140 
3564.828883  	110.516941 
3566.260541  	110.328079 
3567.692199  	110.646637 
3569.123857  	110.982091 
3570.555516  	110.852575 
3571.987174  	110.733125 
3573.418832  	110.709850 
3574.850490  	110.692895 
3576.282148  	110.731761 
3577.713807  	110.794768 
3579.145465  	110.904193 
3580.577123  	110.994400 
3582.008781  	110.932791 
3583.440439  	110.857996 
3584.872097  	110.785069 
3586.303756  	110.653043 
3587.735414  	110.760563 
3589.167072  	111.065061 
3590.598730  	111.015114 
3592.030388  	110.810124 
3593.462047  	110.685164 
3594.893705  	110.640570 
3596.325363  	110.727797 
3597.757021  	110.879009 
3599.188679  	110.900344 
3600.620337  	110.893338 
3602.051996  	110.920699 
3603.483654  	110.901799 
3604.915312  	110.982038 
3606.346970  	111.022231 
3607.778628  	110.898409 
3609.210287  	111.102642 
3610.641945  	111.286103 
3612.073603  	110.987739 
3613.505261  	110.921975 
3614.936919  	111.136694 
3616.368578  	110.951488 
3617.800236  	110.747747 
3619.231894  	110.974242 
3620.663552  	111.355637 
3622.095210  	111.347851 
3623.526868  	111.102173 
3624.958527  	110.990280 
3626.390185  	110.814609 
3627.821843  	110.360609 
3629.253501  	110.470721 
3630.685159  	111.192255 
3632.116818  	111.027535 
3633.548476  	110.837181 
3634.980134  	110.971188 
3636.411792  	111.073604 
3637.843450  	111.143167 
3639.275109  	111.164288 
3640.706767  	111.025258 
3642.138425  	110.980589 
3643.570083  	111.081741 
3645.001741  	111.011437 
3646.433399  	110.839790 
3647.865058  	110.851745 
3649.296716  	110.749401 
3650.728374  	110.708910 
3652.160032  	111.246860 
3653.591690  	111.218218 
3655.023349  	110.796645 
3656.455007  	110.869448 
3657.886665  	111.164298 
3659.318323  	110.979586 
3660.749981  	110.935832 
3662.181639  	111.090340 
3663.613298  	111.142018 
3665.044956  	111.113220 
3666.476614  	110.964958 
3667.908272  	110.737708 
3669.339930  	110.570025 
3670.771589  	110.744561 
3672.203247  	110.964130 
3673.634905  	110.682224 
3675.066563  	110.448208 
3676.498221  	111.091871 
3677.929880  	111.194995 
3679.361538  	111.077796 
3680.793196  	111.217737 
3682.224854  	111.134238 
3683.656512  	110.991384 
3685.088170  	110.923557 
3686.519829  	110.731176 
3687.951487  	110.776783 
3689.383145  	111.164277 
3690.814803  	111.131931 
3692.246461  	111.135840 
3693.678120  	111.256002 
3695.109778  	111.095488 
3696.541436  	110.942148 
3697.973094  	111.003376 
3699.404752  	110.962608 
3700.836411  	110.848906 
3702.268069  	110.996975 
3703.699727  	111.172425 
3705.131385  	111.121193 
3706.563043  	111.078149 
3707.994701  	111.051497 
3709.426360  	110.920860 
3710.858018  	110.800637 
3712.289676  	110.972698 
3713.721334  	111.445226 
3715.152992  	111.578628 
3716.584651  	111.298565 
3718.016309  	111.122915 
3719.447967  	111.133472 
3720.879625  	110.912145 
3722.311283  	110.690055 
3723.742941  	110.792671 
3725.174600  	110.890808 
3726.606258  	111.001278 
3728.037916  	111.209159 
3729.469574  	111.136013 
3730.901232  	110.957102 
3732.332891  	110.994424 
3733.764549  	110.857014 
3735.196207  	110.518357 
3736.627865  	110.984075 
3738.059523  	111.409895 
3739.491182  	111.266311 
3740.922840  	111.360671 
3742.354498  	111.233251 
3743.786156  	110.739394 
3745.217814  	111.312834 
3746.649472  	111.650708 
3748.081131  	111.057148 
3749.512789  	110.933071 
3750.944447  	111.225458 
3752.376105  	111.204318 
3753.807763  	111.409783 
3755.239422  	111.392395 
3756.671080  	111.283588 
3758.102738  	111.398968 
3759.534396  	111.458692 
3760.966054  	111.634583 
3762.397712  	111.703906 
3763.829371  	111.380829 
3765.261029  	111.268826 
3766.692687  	111.492126 
3768.124345  	111.408714 
3769.556003  	111.317303 
3770.987662  	111.499807 
3772.419320  	111.565642 
3773.850978  	111.492443 
3775.282636  	111.496738 
3776.714294  	111.529349 
3778.145953  	111.360411 
3779.577611  	111.214930 
3781.009269  	111.391425 
3782.440927  	111.389068 
3783.872585  	111.229204 
3785.304243  	111.244351 
3786.735902  	111.314290 
3788.167560  	111.378994 
3789.599218  	111.384282 
3791.030876  	111.276158 
3792.462534  	111.375956 
3793.894193  	111.518350 
3795.325851  	111.387086 
3796.757509  	111.315523 
3798.189167  	111.293318 
3799.620825  	110.971602 
3801.052484  	110.766556 
3802.484142  	111.347027 
3803.915800  	111.572264 
3805.347458  	111.184085 
3806.779116  	111.120426 
3808.210774  	111.660837 
3809.642433  	111.592279 
3811.074091  	111.337943 
3812.505749  	111.372081 
3813.937407  	111.192907 
3815.369065  	110.890587 
3816.800724  	111.262615 
3818.232382  	111.359740 
3819.664040  	110.859345 
3821.095698  	110.877419 
3822.527356  	111.692588 
3823.959014  	111.598748 
3825.390673  	111.287723 
3826.822331  	111.340305 
3828.253989  	111.423773 
3829.685647  	111.247111 
3831.117305  	111.130814 
3832.548964  	111.209049 
3833.980622  	111.251954 
3835.412280  	111.192799 
3836.843938  	111.135224 
3838.275596  	111.093726 
3839.707255  	111.094945 
3841.138913  	111.186894 
3842.570571  	111.267948 
3844.002229  	111.392715 
3845.433887  	111.592794 
3846.865545  	111.527185 
3848.297204  	111.296827 
3849.728862  	111.240725 
3851.160520  	111.060675 
3852.592178  	110.645252 
3854.023836  	111.129272 
3855.455495  	111.755217 
3856.887153  	111.550862 
3858.318811  	111.456980 
3859.750469  	111.333874 
3861.182127  	111.211347 
3862.613786  	111.262031 
3864.045444  	111.160282 
3865.477102  	111.281411 
3866.908760  	111.514527 
3868.340418  	111.068215 
3869.772076  	110.753624 
3871.203735  	111.450788 
3872.635393  	111.468799 
3874.067051  	111.246136 
3875.498709  	111.511155 
3876.930367  	111.484605 
3878.362026  	111.185994 
3879.793684  	111.104611 
3881.225342  	111.356260 
3882.657000  	111.442608 
3884.088658  	111.083078 
3885.520316  	110.824470 
3886.951975  	111.314364 
3888.383633  	111.457925 
3889.815291  	111.162764 
3891.246949  	111.155888 
3892.678607  	111.478675 
3894.110266  	111.580218 
3895.541924  	111.474299 
3896.973582  	111.217878 
3898.405240  	111.028690 
3899.836898  	111.113491 
3901.268557  	111.180099 
3902.700215  	111.084666 
3904.131873  	111.144634 
3905.563531  	111.395766 
3906.995189  	111.542494 
3908.426847  	111.548526 
3909.858506  	111.496873 
3911.290164  	111.514760 
3912.721822  	111.591039 
3914.153480  	111.470719 
3915.585138  	111.229999 
3917.016797  	111.182652 
3918.448455  	111.242173 
3919.880113  	111.277865 
3921.311771  	111.396986 
3922.743429  	111.379700 
3924.175088  	111.299593 
3925.606746  	111.429035 
3927.038404  	111.437171 
3928.470062  	111.300388 
3929.901720  	111.320061 
3931.333378  	111.329383 
3932.765037  	111.309636 
3934.196695  	111.418978 
3935.628353  	111.383435 
3937.060011  	111.286454 
3938.491669  	111.369847 
3939.923328  	111.385430 
3941.354986  	111.235732 
3942.786644  	111.225217 
3944.218302  	111.369427 
3945.649960  	111.386500 
3947.081618  	111.356268 
3948.513277  	111.436791 
3949.944935  	111.508020 
3951.376593  	111.499634 
3952.808251  	111.491794 
3954.239909  	111.458858 
3955.671568  	111.438114 
3957.103226  	111.466924 
3958.534884  	111.467589 
3959.966542  	111.456829 
3961.398200  	111.450148 
3962.829859  	111.450817 
3964.261517  	111.490460 
3965.693175  	111.448121 
3967.124833  	111.355357 
3968.556491  	111.369601 
3969.988149  	111.396748 
3971.419808  	111.435334 
3972.851466  	111.525417 
3974.283124  	111.475835 
3975.714782  	111.347576 
3977.146440  	111.327148 
3978.578099  	111.373059 
3980.009757  	111.453022 
3981.441415  	111.447798 
3982.873073  	111.303130 
3984.304731  	111.264537 
3985.736389  	111.353569 
3987.168048  	111.356300 
3988.599706  	111.285765 
3990.031364  	111.290892 
3991.463022  	111.392514 
3992.894680  	111.459463 
3994.326339  	111.454876 
3995.757997  	111.456351 
3997.189655  	111.453420 
3998.621313  	111.444175 
4000.052971  	111.425401 