##TITLE=No Description
##DATA TYPE=INFRARED SPECTRUM
##XUNITS=1/CM
##YUNITS=%T
399.432634  	91.806120 
400.864292  	89.747135 
402.295950  	89.472090 
403.727608  	86.632539 
405.159267  	82.567810 
406.590925  	84.361241 
408.022583  	86.102462 
409.454241  	82.697760 
410.885899  	80.855027 
412.317558  	84.566613 
413.749216  	90.862765 
415.180874  	90.155254 
416.612532  	84.570644 
418.044190  	84.332193 
419.475848  	88.111948 
420.907507  	86.789671 
422.339165  	86.492619 
423.770823  	86.012511 
425.202481  	85.364577 
426.634139  	87.004713 
428.065798  	87.531955 
429.497456  	88.919549 
430.929114  	91.354916 
432.360772  	88.459018 
433.792430  	85.307735 
435.224089  	87.025739 
436.655747  	88.888184 
438.087405  	88.656067 
439.519063  	87.714075 
440.950721  	86.220637 
442.382379  	84.987363 
443.814038  	84.313814 
445.245696  	84.773564 
446.677354  	86.390994 
448.109012  	87.555196 
449.540670  	88.272621 
450.972329  	88.222530 
452.403987  	86.323712 
453.835645  	85.554457 
455.267303  	87.171099 
456.698961  	88.388833 
458.130619  	87.778379 
459.562278  	87.268952 
460.993936  	87.486182 
462.425594  	87.502721 
463.857252  	87.380285 
465.288910  	86.968737 
466.720569  	86.307012 
468.152227  	86.120493 
469.583885  	85.080702 
471.015543  	83.374439 
472.447201  	83.616657 
473.878860  	83.889535 
475.310518  	83.020997 
476.742176  	82.770388 
478.173834  	81.859365 
479.605492  	80.884429 
481.037150  	81.174150 
482.468809  	80.807221 
483.900467  	80.011331 
485.332125  	79.329509 
486.763783  	77.858869 
488.195441  	77.374255 
489.627100  	77.868476 
491.058758  	77.357075 
492.490416  	76.476277 
493.922074  	75.782945 
495.353732  	75.322542 
496.785391  	74.776266 
498.217049  	72.728479 
499.648707  	70.507490 
501.080365  	68.924889 
502.512023  	65.553528 
503.943681  	60.668770 
505.375340  	55.833810 
506.806998  	51.601289 
508.238656  	50.515997 
509.670314  	52.464419 
511.101972  	54.724560 
512.533631  	56.544863 
513.965289  	58.617084 
515.396947  	61.204625 
516.828605  	64.083835 
518.260263  	67.102630 
519.691921  	70.307050 
521.123580  	73.469784 
522.555238  	75.998993 
523.986896  	77.525510 
525.418554  	78.677190 
526.850212  	80.309204 
528.281871  	81.682628 
529.713529  	82.437892 
531.145187  	82.815450 
532.576845  	82.409406 
534.008503  	82.053519 
535.440162  	82.538221 
536.871820  	82.672562 
538.303478  	82.343943 
539.735136  	82.358193 
541.166794  	82.336406 
542.598452  	82.231760 
544.030111  	82.220492 
545.461769  	82.172088 
546.893427  	82.202293 
548.325085  	82.154565 
549.756743  	82.083968 
551.188402  	82.038019 
552.620060  	81.828226 
554.051718  	81.984531 
555.483376  	82.314705 
556.915034  	82.110525 
558.346692  	81.990514 
559.778351  	81.976769 
561.210009  	81.571330 
562.641667  	81.349840 
564.073325  	81.330698 
565.504983  	81.206621 
566.936642  	81.188286 
568.368300  	80.956520 
569.799958  	80.521504 
571.231616  	80.305273 
572.663274  	80.062762 
574.094933  	79.768352 
575.526591  	79.519182 
576.958249  	79.075350 
578.389907  	78.767451 
579.821565  	78.885064 
581.253223  	79.002348 
582.684882  	78.868694 
584.116540  	78.740353 
585.548198  	78.678456 
586.979856  	78.569481 
588.411514  	78.467682 
589.843173  	78.462778 
591.274831  	78.498526 
592.706489  	78.366133 
594.138147  	77.951514 
595.569805  	77.496516 
597.001464  	77.207376 
598.433122  	76.896891 
599.864780  	76.245166 
601.296438  	75.196799 
602.728096  	73.962010 
604.159754  	72.528961 
605.591413  	70.774820 
607.023071  	68.952900 
608.454729  	67.583951 
609.886387  	67.239890 
611.318045  	67.878345 
612.749704  	68.960497 
614.181362  	70.104812 
615.613020  	71.215105 
617.044678  	72.240212 
618.476336  	72.966688 
619.907994  	73.280117 
621.339653  	73.270005 
622.771311  	73.262162 
624.202969  	73.277945 
625.634627  	73.000534 
627.066285  	72.637136 
628.497944  	72.415215 
629.929602  	72.094032 
631.361260  	71.567159 
632.792918  	70.866605 
634.224576  	70.191836 
635.656235  	69.900076 
637.087893  	69.869650 
638.519551  	69.623567 
639.951209  	69.211977 
641.382867  	69.078203 
642.814525  	69.219805 
644.246184  	69.297721 
645.677842  	69.216229 
647.109500  	69.057011 
648.541158  	68.933726 
649.972816  	68.941693 
651.404475  	68.913679 
652.836133  	68.734047 
654.267791  	68.613687 
655.699449  	68.680841 
657.131107  	68.822670 
658.562766  	68.846161 
659.994424  	68.799784 
661.426082  	68.930047 
662.857740  	69.122773 
664.289398  	69.112267 
665.721056  	69.020337 
667.152715  	69.067466 
668.584373  	69.582016 
670.016031  	70.001553 
671.447689  	70.186961 
672.879347  	70.381556 
674.311006  	70.557434 
675.742664  	70.805400 
677.174322  	71.204776 
678.605980  	71.535674 
680.037638  	71.863850 
681.469296  	72.357622 
682.900955  	72.743530 
684.332613  	72.983804 
685.764271  	73.348084 
687.195929  	73.773075 
688.627587  	74.130107 
690.059246  	74.533242 
691.490904  	75.032937 
692.922562  	75.556084 
694.354220  	75.996655 
695.785878  	76.247727 
697.217537  	76.458100 
698.649195  	76.768364 
700.080853  	76.864411 
701.512511  	76.692128 
702.944169  	76.590657 
704.375827  	76.399228 
705.807486  	75.952934 
707.239144  	75.730444 
708.670802  	76.028114 
710.102460  	76.547779 
711.534118  	77.025128 
712.965777  	77.444808 
714.397435  	77.824634 
715.829093  	78.096320 
717.260751  	78.186208 
718.692409  	78.195618 
720.124067  	78.231070 
721.555726  	78.256007 
722.987384  	78.263863 
724.419042  	78.288237 
725.850700  	78.303044 
727.282358  	78.311003 
728.714017  	78.351813 
730.145675  	78.405686 
731.577333  	78.384564 
733.008991  	78.285097 
734.440649  	78.216021 
735.872308  	78.032318 
737.303966  	77.487989 
738.735624  	76.751533 
740.167282  	75.913013 
741.598940  	74.806180 
743.030598  	73.651665 
744.462257  	72.595350 
745.893915  	71.518263 
747.325573  	70.650950 
748.757231  	70.131639 
750.188889  	69.939965 
751.620548  	70.136030 
753.052206  	70.406659 
754.483864  	70.529560 
755.915522  	70.586114 
757.347180  	70.296961 
758.778839  	69.495881 
760.210497  	68.372252 
761.642155  	66.810678 
763.073813  	64.681176 
764.505471  	62.098836 
765.937129  	59.310479 
767.368788  	56.861759 
768.800446  	55.259718 
770.232104  	54.743753 
771.663762  	55.596379 
773.095420  	58.010771 
774.527079  	61.362501 
775.958737  	64.850052 
777.390395  	68.249518 
778.822053  	71.151627 
780.253711  	73.267014 
781.685369  	75.025290 
783.117028  	76.951107 
784.548686  	79.189797 
785.980344  	81.542145 
787.412002  	83.669971 
788.843660  	85.306583 
790.275319  	86.395728 
791.706977  	87.059752 
793.138635  	87.231106 
794.570293  	86.894908 
796.001951  	86.379895 
797.433610  	85.737716 
798.865268  	84.645779 
800.296926  	83.116780 
801.728584  	81.409571 
803.160242  	79.522816 
804.591900  	77.461482 
806.023559  	75.342267 
807.455217  	73.192829 
808.886875  	71.074190 
810.318533  	69.047037 
811.750191  	67.228469 
813.181850  	65.735178 
814.613508  	64.673082 
816.045166  	64.441697 
817.476824  	65.239183 
818.908482  	66.964359 
820.340141  	69.514873 
821.771799  	72.398279 
823.203457  	75.067502 
824.635115  	77.228600 
826.066773  	78.748411 
827.498431  	79.815233 
828.930090  	80.655458 
830.361748  	81.252328 
831.793406  	81.626486 
833.225064  	81.851427 
834.656722  	81.986515 
836.088381  	82.065046 
837.520039  	81.933533 
838.951697  	81.561738 
840.383355  	81.082131 
841.815013  	80.384591 
843.246671  	79.519640 
844.678330  	78.777047 
846.109988  	78.196719 
847.541646  	77.864286 
848.973304  	77.939101 
850.404962  	78.363532 
851.836621  	79.096171 
853.268279  	80.097591 
854.699937  	81.151514 
856.131595  	82.086434 
857.563253  	82.825443 
858.994912  	83.254097 
860.426570  	83.502261 
861.858228  	83.889829 
863.289886  	84.524223 
864.721544  	85.506482 
866.153202  	86.980892 
867.584861  	88.730704 
869.016519  	90.503613 
870.448177  	92.250893 
871.879835  	93.807705 
873.311493  	95.055464 
874.743152  	96.045405 
876.174810  	96.711124 
877.606468  	96.984461 
879.038126  	97.055410 
880.469784  	97.077741 
881.901443  	97.058846 
883.333101  	97.036449 
884.764759  	96.984002 
886.196417  	96.839097 
887.628075  	96.637967 
889.059733  	96.478606 
890.491392  	96.355975 
891.923050  	96.129825 
893.354708  	95.842708 
894.786366  	95.597099 
896.218024  	95.303704 
897.649683  	95.020575 
899.081341  	94.778690 
900.512999  	94.426145 
901.944657  	94.049076 
903.376315  	93.672611 
904.807973  	93.133177 
906.239632  	92.445909 
907.671290  	91.556516 
909.102948  	90.395617 
910.534606  	89.140626 
911.966264  	87.986164 
913.397923  	87.111949 
914.829581  	86.721599 
916.261239  	86.977846 
917.692897  	87.753180 
919.124555  	88.630934 
920.556214  	89.397664 
921.987872  	90.000597 
923.419530  	90.351149 
924.851188  	90.487240 
926.282846  	90.355396 
927.714504  	89.917123 
929.146163  	89.420531 
930.577821  	88.891998 
932.009479  	88.260654 
933.441137  	87.688691 
934.872795  	87.138679 
936.304454  	86.479065 
937.736112  	85.717153 
939.167770  	84.927974 
940.599428  	84.303865 
942.031086  	83.839601 
943.462744  	83.332827 
944.894403  	82.757739 
946.326061  	82.195861 
947.757719  	81.711048 
949.189377  	81.230676 
950.621035  	80.621534 
952.052694  	79.961587 
953.484352  	79.331116 
954.916010  	78.730824 
956.347668  	78.213533 
957.779326  	77.769778 
959.210985  	77.420252 
960.642643  	77.229719 
962.074301  	77.198624 
963.505959  	77.340399 
964.937617  	77.618474 
966.369275  	77.914632 
967.800934  	78.134836 
969.232592  	78.271194 
970.664250  	78.331060 
972.095908  	78.216173 
973.527566  	77.892624 
974.959225  	77.455357 
976.390883  	76.895751 
977.822541  	76.284810 
979.254199  	75.817344 
980.685857  	75.499862 
982.117516  	75.345830 
983.549174  	75.475695 
984.980832  	75.915306 
986.412490  	76.514269 
987.844148  	77.039353 
989.275806  	77.467984 
990.707465  	77.804297 
992.139123  	77.896763 
993.570781  	77.784776 
995.002439  	77.541835 
996.434097  	77.133057 
997.865756  	76.672891 
999.297414  	76.134258 
1000.729072  	75.454711 
1002.160730  	74.794222 
1003.592388  	74.067152 
1005.024046  	73.174747 
1006.455705  	72.238497 
1007.887363  	71.174155 
1009.319021  	69.891954 
1010.750679  	68.396542 
1012.182337  	66.631946 
1013.613996  	64.377412 
1015.045654  	61.242200 
1016.477312  	57.899862 
1017.908970  	56.335674 
1019.340628  	57.743965 
1020.772287  	61.342645 
1022.203945  	65.187202 
1023.635603  	67.951921 
1025.067261  	69.218161 
1026.498919  	69.014414 
1027.930577  	67.921952 
1029.362236  	66.539457 
1030.793894  	64.996320 
1032.225552  	63.506078 
1033.657210  	62.154547 
1035.088868  	60.818361 
1036.520527  	59.675713 
1037.952185  	58.710318 
1039.383843  	57.772012 
1040.815501  	56.826108 
1042.247159  	55.683396 
1043.678818  	54.322397 
1045.110476  	52.715836 
1046.542134  	50.867109 
1047.973792  	49.024407 
1049.405450  	47.017812 
1050.837108  	44.880048 
1052.268767  	42.945113 
1053.700425  	40.958871 
1055.132083  	39.004475 
1056.563741  	37.277326 
1057.995399  	35.626031 
1059.427058  	34.335450 
1060.858716  	33.376369 
1062.290374  	32.671687 
1063.722032  	32.333459 
1065.153690  	31.993134 
1066.585348  	31.837079 
1068.017007  	31.927382 
1069.448665  	31.817229 
1070.880323  	31.825196 
1072.311981  	31.944178 
1073.743639  	31.988733 
1075.175298  	32.229882 
1076.606956  	32.502555 
1078.038614  	33.076651 
1079.470272  	34.143433 
1080.901930  	35.406757 
1082.333589  	37.422377 
1083.765247  	40.247406 
1085.196905  	43.454847 
1086.628563  	46.942521 
1088.060221  	49.821649 
1089.491879  	51.527133 
1090.923538  	52.304747 
1092.355196  	52.261826 
1093.786854  	51.838803 
1095.218512  	51.293638 
1096.650170  	50.524769 
1098.081829  	49.863767 
1099.513487  	49.176675 
1100.945145  	48.363096 
1102.376803  	47.793584 
1103.808461  	47.291923 
1105.240120  	47.086684 
1106.671778  	47.458076 
1108.103436  	47.967708 
1109.535094  	48.686268 
1110.966752  	49.726287 
1112.398410  	51.105318 
1113.830069  	53.048383 
1115.261727  	55.165112 
1116.693385  	57.202985 
1118.125043  	59.288236 
1119.556701  	61.280797 
1120.988360  	63.257184 
1122.420018  	65.359209 
1123.851676  	67.526319 
1125.283334  	69.791438 
1126.714992  	72.138161 
1128.146650  	74.517771 
1129.578309  	76.845625 
1131.009967  	78.975431 
1132.441625  	80.936968 
1133.873283  	82.793017 
1135.304941  	84.435141 
1136.736600  	85.863655 
1138.168258  	87.166560 
1139.599916  	88.241582 
1141.031574  	89.098328 
1142.463232  	89.846483 
1143.894891  	90.462490 
1145.326549  	91.024435 
1146.758207  	91.521932 
1148.189865  	91.894427 
1149.621523  	92.266791 
1151.053181  	92.580299 
1152.484840  	92.789037 
1153.916498  	92.965173 
1155.348156  	93.008284 
1156.779814  	92.968943 
1158.211472  	92.864313 
1159.643131  	92.574254 
1161.074789  	92.219526 
1162.506447  	91.766505 
1163.938105  	91.105920 
1165.369763  	90.366178 
1166.801421  	89.570327 
1168.233080  	88.653921 
1169.664738  	87.512463 
1171.096396  	86.165696 
1172.528054  	84.755939 
1173.959712  	83.131794 
1175.391371  	81.223562 
1176.823029  	79.073513 
1178.254687  	76.618497 
1179.686345  	74.149367 
1181.118003  	72.034157 
1182.549662  	70.429452 
1183.981320  	69.128972 
1185.412978  	67.637341 
1186.844636  	65.845204 
1188.276294  	63.760860 
1189.707952  	61.406028 
1191.139611  	58.987265 
1192.571269  	56.379068 
1194.002927  	53.607760 
1195.434585  	50.804232 
1196.866243  	47.761496 
1198.297902  	44.623558 
1199.729560  	41.487177 
1201.161218  	38.584644 
1202.592876  	36.515969 
1204.024534  	35.166991 
1205.456193  	34.529918 
1206.887851  	34.545446 
1208.319509  	34.516071 
1209.751167  	34.202231 
1211.182825  	33.297069 
1212.614483  	31.677481 
1214.046142  	29.931356 
1215.477800  	28.191542 
1216.909458  	26.824249 
1218.341116  	26.200237 
1219.772774  	25.934274 
1221.204433  	26.208284 
1222.636091  	26.908852 
1224.067749  	27.699388 
1225.499407  	28.879268 
1226.931065  	30.130206 
1228.362723  	31.384758 
1229.794382  	32.910935 
1231.226040  	34.435630 
1232.657698  	36.243139 
1234.089356  	38.404049 
1235.521014  	40.694143 
1236.952673  	43.459962 
1238.384331  	46.498728 
1239.815989  	49.655839 
1241.247647  	53.031293 
1242.679305  	56.153144 
1244.110964  	58.847136 
1245.542622  	60.941301 
1246.974280  	61.993185 
1248.405938  	62.093051 
1249.837596  	61.559002 
1251.269254  	60.966082 
1252.700913  	61.167249 
1254.132571  	62.358734 
1255.564229  	64.588877 
1256.995887  	67.760127 
1258.427545  	71.228791 
1259.859204  	74.705113 
1261.290862  	78.023244 
1262.722520  	80.876046 
1264.154178  	83.240608 
1265.585836  	85.101331 
1267.017495  	86.359687 
1268.449153  	87.152468 
1269.880811  	87.610461 
1271.312469  	87.802824 
1272.744127  	87.877599 
1274.175785  	87.841495 
1275.607444  	87.837430 
1277.039102  	88.042963 
1278.470760  	88.284155 
1279.902418  	88.527684 
1281.334076  	88.858434 
1282.765735  	89.137058 
1284.197393  	89.311760 
1285.629051  	89.386208 
1287.060709  	89.309535 
1288.492367  	88.971319 
1289.924025  	88.192185 
1291.355684  	87.026556 
1292.787342  	85.496769 
1294.219000  	83.545367 
1295.650658  	81.217220 
1297.082316  	78.370977 
1298.513975  	75.068768 
1299.945633  	71.372044 
1301.377291  	67.295422 
1302.808949  	63.311224 
1304.240607  	59.653258 
1305.672266  	56.740859 
1307.103924  	54.910019 
1308.535582  	54.069999 
1309.967240  	54.495899 
1311.398898  	55.814780 
1312.830556  	57.723348 
1314.262215  	60.076378 
1315.693873  	62.068550 
1317.125531  	63.888123 
1318.557189  	66.321516 
1319.988847  	69.679327 
1321.420506  	73.788441 
1322.852164  	77.910943 
1324.283822  	81.639952 
1325.715480  	84.803251 
1327.147138  	87.377881 
1328.578796  	89.463517 
1330.010455  	91.025991 
1331.442113  	92.215638 
1332.873771  	93.029363 
1334.305429  	93.489660 
1335.737087  	93.732673 
1337.168746  	93.719231 
1338.600404  	93.632534 
1340.032062  	93.566243 
1341.463720  	93.512294 
1342.895378  	93.581883 
1344.327037  	93.646961 
1345.758695  	93.635969 
1347.190353  	93.496592 
1348.622011  	93.111508 
1350.053669  	92.634158 
1351.485327  	92.032817 
1352.916986  	91.268982 
1354.348644  	90.533857 
1355.780302  	89.793335 
1357.211960  	89.146105 
1358.643618  	88.637909 
1360.075277  	88.151186 
1361.506935  	87.782221 
1362.938593  	87.521411 
1364.370251  	87.300526 
1365.801909  	87.113076 
1367.233568  	86.960941 
1368.665226  	87.016441 
1370.096884  	87.239391 
1371.528542  	87.468747 
1372.960200  	87.808341 
1374.391858  	88.359023 
1375.823517  	88.924952 
1377.255175  	89.361974 
1378.686833  	89.884136 
1380.118491  	90.529898 
1381.550149  	91.098419 
1382.981808  	91.524147 
1384.413466  	91.723000 
1385.845124  	91.751392 
1387.276782  	91.764747 
1388.708440  	91.865110 
1390.140098  	92.027162 
1391.571757  	92.240224 
1393.003415  	92.369797 
1394.435073  	92.324082 
1395.866731  	92.078846 
1397.298389  	91.520592 
1398.730048  	90.636522 
1400.161706  	89.424301 
1401.593364  	87.759647 
1403.025022  	85.538312 
1404.456680  	82.462710 
1405.888339  	78.003846 
1407.319997  	72.578955 
1408.751655  	66.593560 
1410.183313  	60.157668 
1411.614971  	55.277232 
1413.046629  	53.491817 
1414.478288  	54.668237 
1415.909946  	59.457864 
1417.341604  	65.769689 
1418.773262  	73.265432 
1420.204920  	82.917255 
1421.636579  	88.001869 
1423.068237  	90.853750 
1424.499895  	93.499880 
1425.931553  	93.975494 
1427.363211  	93.630097 
1428.794870  	92.793496 
1430.226528  	91.071501 
1431.658186  	89.731427 
1433.089844  	88.544221 
1434.521502  	87.669663 
1435.953160  	87.609281 
1437.384819  	88.440025 
1438.816477  	89.328535 
1440.248135  	90.018485 
1441.679793  	90.384254 
1443.111451  	90.255680 
1444.543110  	89.608230 
1445.974768  	88.873667 
1447.406426  	88.647806 
1448.838084  	88.761592 
1450.269742  	88.956341 
1451.701400  	89.195501 
1453.133059  	89.226432 
1454.564717  	89.065546 
1455.996375  	88.835351 
1457.428033  	88.946979 
1458.859691  	89.420337 
1460.291350  	89.237003 
1461.723008  	88.669297 
1463.154666  	88.004556 
1464.586324  	87.089190 
1466.017982  	86.268596 
1467.449641  	85.485642 
1468.881299  	84.558681 
1470.312957  	83.805766 
1471.744615  	82.866867 
1473.176273  	81.711170 
1474.607931  	80.693962 
1476.039590  	79.202634 
1477.471248  	78.137680 
1478.902906  	78.139138 
1480.334564  	79.031342 
1481.766222  	81.088555 
1483.197881  	82.837759 
1484.629539  	84.174744 
1486.061197  	85.274844 
1487.492855  	85.655529 
1488.924513  	86.235468 
1490.356172  	86.220998 
1491.787830  	85.398097 
1493.219488  	84.695462 
1494.651146  	83.154998 
1496.082804  	81.373137 
1497.514462  	79.688741 
1498.946121  	76.880686 
1500.377779  	74.471275 
1501.809437  	71.785657 
1503.241095  	68.430605 
1504.672753  	65.810509 
1506.104412  	62.271249 
1507.536070  	56.844551 
1508.967728  	53.655012 
1510.399386  	49.627278 
1511.831044  	46.364674 
1513.262702  	43.990020 
1514.694361  	41.500278 
1516.126019  	40.535067 
1517.557677  	39.189417 
1518.989335  	37.071446 
1520.420993  	36.148971 
1521.852652  	33.617538 
1523.284310  	32.280350 
1524.715968  	31.880321 
1526.147626  	30.875365 
1527.579284  	31.739745 
1529.010943  	32.310325 
1530.442601  	32.951722 
1531.874259  	34.723211 
1533.305917  	36.243400 
1534.737575  	39.582754 
1536.169233  	42.143521 
1537.600892  	43.575879 
1539.032550  	47.456226 
1540.464208  	52.526596 
1541.895866  	56.366883 
1543.327524  	60.737809 
1544.759183  	64.277183 
1546.190841  	69.022671 
1547.622499  	72.795282 
1549.054157  	75.717560 
1550.485815  	80.329068 
1551.917473  	83.640615 
1553.349132  	85.972175 
1554.780790  	89.441839 
1556.212448  	91.561536 
1557.644106  	92.662607 
1559.075764  	95.133747 
1560.507423  	97.324725 
1561.939081  	97.866100 
1563.370739  	98.259213 
1564.802397  	98.773564 
1566.234055  	99.356663 
1567.665714  	99.656937 
1569.097372  	100.128393 
1570.529030  	100.934725 
1571.960688  	101.342466 
1573.392346  	101.480684 
1574.824004  	101.515581 
1576.255663  	101.457877 
1577.687321  	101.143217 
1579.118979  	100.640122 
1580.550637  	99.828344 
1581.982295  	98.621263 
1583.413954  	97.041690 
1584.845612  	94.663219 
1586.277270  	91.649733 
1587.708928  	87.921970 
1589.140586  	83.170106 
1590.572245  	78.493649 
1592.003903  	73.841286 
1593.435561  	69.958717 
1594.867219  	67.985747 
1596.298877  	66.912612 
1597.730535  	67.593308 
1599.162194  	69.528167 
1600.593852  	71.736388 
1602.025510  	74.777596 
1603.457168  	77.522217 
1604.888826  	79.738807 
1606.320485  	81.637756 
1607.752143  	82.608397 
1609.183801  	83.275737 
1610.615459  	83.633603 
1612.047117  	83.726309 
1613.478775  	84.493372 
1614.910434  	85.249109 
1616.342092  	86.888592 
1617.773750  	90.382663 
1619.205408  	92.491974 
1620.637066  	94.487715 
1622.068725  	96.489612 
1623.500383  	97.787322 
1624.932041  	99.152409 
1626.363699  	99.689652 
1627.795357  	99.715200 
1629.227016  	100.148260 
1630.658674  	99.882732 
1632.090332  	99.393362 
1633.521990  	99.153318 
1634.953648  	98.321269 
1636.385306  	98.172290 
1637.816965  	98.772279 
1639.248623  	99.033353 
1640.680281  	99.976845 
1642.111939  	100.513898 
1643.543597  	100.658639 
1644.975256  	101.058734 
1646.406914  	100.798565 
1647.838572  	101.143352 
1649.270230  	101.353710 
1650.701888  	100.724163 
1652.133547  	100.765752 
1653.565205  	100.612382 
1654.996863  	99.957734 
1656.428521  	99.971368 
1657.860179  	99.130632 
1659.291837  	98.588542 
1660.723496  	98.294953 
1662.155154  	97.216404 
1663.586812  	96.885936 
1665.018470  	96.189059 
1666.450128  	95.050671 
1667.881787  	94.693893 
1669.313445  	93.381933 
1670.745103  	92.125980 
1672.176761  	91.339034 
1673.608419  	89.226371 
1675.040077  	87.778142 
1676.471736  	85.731756 
1677.903394  	82.885046 
1679.335052  	81.098958 
1680.766710  	77.849413 
1682.198368  	74.571120 
1683.630027  	72.730988 
1685.061685  	66.825261 
1686.493343  	63.253562 
1687.925001  	60.169336 
1689.356659  	55.162583 
1690.788318  	51.318737 
1692.219976  	47.071837 
1693.651634  	42.698351 
1695.083292  	40.271397 
1696.514950  	37.131660 
1697.946608  	35.180826 
1699.378267  	35.509790 
1700.809925  	38.026446 
1702.241583  	40.919604 
1703.673241  	43.220458 
1705.104899  	46.650199 
1706.536558  	51.079800 
1707.968216  	54.603619 
1709.399874  	57.501035 
1710.831532  	60.440294 
1712.263190  	63.178427 
1713.694849  	65.227854 
1715.126507  	67.646286 
1716.558165  	69.932910 
1717.989823  	71.545237 
1719.421481  	73.709996 
1720.853139  	74.490183 
1722.284798  	74.636336 
1723.716456  	75.081364 
1725.148114  	74.846266 
1726.579772  	74.488944 
1728.011430  	74.571825 
1729.443089  	74.768023 
1730.874747  	75.952484 
1732.306405  	77.305053 
1733.738063  	78.961127 
1735.169721  	83.658050 
1736.601379  	86.105890 
1738.033038  	88.122668 
1739.464696  	91.695054 
1740.896354  	94.524744 
1742.328012  	96.965899 
1743.759670  	99.441838 
1745.191329  	100.902458 
1746.622987  	102.616195 
1748.054645  	103.774770 
1749.486303  	104.593546 
1750.917961  	105.899089 
1752.349620  	106.101366 
1753.781278  	106.615844 
1755.212936  	107.120642 
1756.644594  	107.010383 
1758.076252  	107.671590 
1759.507910  	107.772856 
1760.939569  	107.508538 
1762.371227  	108.084412 
1763.802885  	108.015658 
1765.234543  	108.034458 
1766.666201  	108.236650 
1768.097860  	107.920783 
1769.529518  	108.307357 
1770.961176  	108.411271 
1772.392834  	108.067030 
1773.824492  	108.616754 
1775.256150  	108.405240 
1776.687809  	108.332648 
1778.119467  	108.646306 
1779.551125  	108.324731 
1780.982783  	108.503654 
1782.414441  	108.677227 
1783.846100  	108.354445 
1785.277758  	108.629203 
1786.709416  	108.581468 
1788.141074  	108.453377 
1789.572732  	108.650349 
1791.004391  	108.301189 
1792.436049  	108.482874 
1793.867707  	108.828209 
1795.299365  	108.497390 
1796.731023  	108.740119 
1798.162681  	108.764320 
1799.594340  	108.580851 
1801.025998  	108.940115 
1802.457656  	108.812043 
1803.889314  	108.865365 
1805.320972  	109.090578 
1806.752631  	108.843848 
1808.184289  	109.034269 
1809.615947  	109.103989 
1811.047605  	108.884392 
1812.479263  	109.162061 
1813.910922  	109.075804 
1815.342580  	109.112869 
1816.774238  	109.410356 
1818.205896  	109.182533 
1819.637554  	109.336248 
1821.069212  	109.431901 
1822.500871  	109.185119 
1823.932529  	109.446327 
1825.364187  	109.405074 
1826.795845  	109.435035 
1828.227503  	109.780533 
1829.659162  	109.504428 
1831.090820  	109.634177 
1832.522478  	109.823343 
1833.954136  	109.644252 
1835.385794  	109.940743 
1836.817452  	109.880240 
1838.249111  	109.813964 
1839.680769  	110.187909 
1841.112427  	109.873799 
1842.544085  	109.804312 
1843.975743  	110.128300 
1845.407402  	109.929365 
1846.839060  	110.183927 
1848.270718  	110.165511 
1849.702376  	110.017536 
1851.134034  	110.291490 
1852.565693  	110.088415 
1853.997351  	110.218545 
1855.429009  	110.479454 
1856.860667  	110.054155 
1858.292325  	110.231884 
1859.723983  	110.348364 
1861.155642  	110.069664 
1862.587300  	110.371668 
1864.018958  	110.289347 
1865.450616  	110.220704 
1866.882274  	110.388133 
1868.313933  	109.945898 
1869.745591  	110.225191 
1871.177249  	110.396168 
1872.608907  	110.005359 
1874.040565  	110.311313 
1875.472224  	110.232486 
1876.903882  	110.002252 
1878.335540  	110.337069 
1879.767198  	110.151639 
1881.198856  	110.204272 
1882.630514  	110.357925 
1884.062173  	110.006310 
1885.493831  	110.168591 
1886.925489  	110.044538 
1888.357147  	109.776297 
1889.788805  	110.080851 
1891.220464  	109.771080 
1892.652122  	109.727387 
1894.083780  	109.915355 
1895.515438  	109.513621 
1896.947096  	109.664468 
1898.378754  	109.620002 
1899.810413  	109.340312 
1901.242071  	109.689186 
1902.673729  	109.423255 
1904.105387  	109.227059 
1905.537045  	109.489708 
1906.968704  	109.272084 
1908.400362  	109.543252 
1909.832020  	109.650921 
1911.263678  	109.415806 
1912.695336  	109.903130 
1914.126995  	109.782507 
1915.558653  	109.768274 
1916.990311  	110.360958 
1918.421969  	109.966168 
1919.853627  	110.068686 
1921.285285  	110.418641 
1922.716944  	110.084864 
1924.148602  	110.421543 
1925.580260  	110.293396 
1927.011918  	109.933823 
1928.443576  	110.345004 
1929.875235  	110.234172 
1931.306893  	110.549807 
1932.738551  	111.007062 
1934.170209  	110.548690 
1935.601867  	110.881063 
1937.033525  	110.857194 
1938.465184  	110.292583 
1939.896842  	110.662666 
1941.328500  	110.406708 
1942.760158  	110.339503 
1944.191816  	110.788409 
1945.623475  	110.215006 
1947.055133  	110.384335 
1948.486791  	110.484552 
1949.918449  	109.944658 
1951.350107  	110.336337 
1952.781766  	110.251948 
1954.213424  	110.312978 
1955.645082  	110.761108 
1957.076740  	110.054244 
1958.508398  	110.330533 
1959.940056  	110.583301 
1961.371715  	109.818781 
1962.803373  	110.297859 
1964.235031  	109.963345 
1965.666689  	109.536686 
1967.098347  	110.429165 
1968.530006  	110.165530 
1969.961664  	110.347484 
1971.393322  	110.308353 
1972.824980  	109.556499 
1974.256638  	110.757177 
1975.688297  	110.545540 
1977.119955  	109.332850 
1978.551613  	109.926441 
1979.983271  	109.737657 
1981.414929  	110.263182 
1982.846587  	110.871436 
1984.278246  	110.036038 
1985.709904  	110.464801 
1987.141562  	110.562827 
1988.573220  	110.126242 
1990.004878  	110.694066 
1991.436537  	110.112724 
1992.868195  	110.220154 
1994.299853  	111.078383 
1995.731511  	110.393921 
1997.163169  	110.536521 
1998.594827  	110.510497 
2000.026486  	109.844996 
2001.458144  	110.451633 
2002.889802  	110.051667 
2004.321460  	109.805216 
2005.753118  	110.702894 
2007.184777  	110.089407 
2008.616435  	110.073281 
2010.048093  	110.161412 
2011.479751  	109.561931 
2012.911409  	110.465049 
2014.343068  	110.347685 
2015.774726  	109.830547 
2017.206384  	110.341856 
2018.638042  	109.761196 
2020.069700  	110.306524 
2021.501358  	110.742198 
2022.933017  	109.664668 
2024.364675  	110.179097 
2025.796333  	109.963968 
2027.227991  	109.521729 
2028.659649  	110.523189 
2030.091308  	109.643344 
2031.522966  	109.465308 
2032.954624  	110.392302 
2034.386282  	109.773319 
2035.817940  	110.283772 
2037.249599  	110.279916 
2038.681257  	109.421568 
2040.112915  	110.004758 
2041.544573  	109.813973 
2042.976231  	110.042597 
2044.407889  	110.885482 
2045.839548  	110.115026 
2047.271206  	110.197139 
2048.702864  	110.591766 
2050.134522  	110.300094 
2051.566180  	110.661539 
2052.997839  	110.208377 
2054.429497  	109.943837 
2055.861155  	110.562366 
2057.292813  	110.443121 
2058.724471  	110.873572 
2060.156129  	111.212833 
2061.587788  	110.657990 
2063.019446  	110.988879 
2064.451104  	110.985123 
2065.882762  	110.696055 
2067.314420  	111.192930 
2068.746079  	111.102237 
2070.177737  	111.075868 
2071.609395  	110.963652 
2073.041053  	110.382094 
2074.472711  	110.854666 
2075.904370  	111.069973 
2077.336028  	110.646159 
2078.767686  	110.837018 
2080.199344  	110.732100 
2081.631002  	110.795722 
2083.062660  	111.045468 
2084.494319  	110.714121 
2085.925977  	110.886116 
2087.357635  	110.935530 
2088.789293  	110.666715 
2090.220951  	110.996357 
2091.652610  	110.879054 
2093.084268  	110.784417 
2094.515926  	111.029835 
2095.947584  	110.791341 
2097.379242  	111.174169 
2098.810901  	111.376672 
2100.242559  	110.813862 
2101.674217  	110.988874 
2103.105875  	110.982656 
2104.537533  	110.893828 
2105.969191  	111.401393 
2107.400850  	111.239492 
2108.832508  	111.097475 
2110.264166  	111.144070 
2111.695824  	110.747023 
2113.127482  	110.797021 
2114.559141  	110.801302 
2115.990799  	110.805705 
2117.422457  	111.177996 
2118.854115  	110.898891 
2120.285773  	110.856938 
2121.717431  	111.110439 
2123.149090  	110.756558 
2124.580748  	110.958004 
2126.012406  	111.038078 
2127.444064  	110.596049 
2128.875722  	110.966518 
2130.307381  	111.086360 
2131.739039  	110.820685 
2133.170697  	110.781976 
2134.602355  	110.367356 
2136.034013  	110.512610 
2137.465672  	110.553959 
2138.897330  	110.116283 
2140.328988  	110.629556 
2141.760646  	110.612610 
2143.192304  	110.219286 
2144.623962  	110.380011 
2146.055621  	109.835943 
2147.487279  	110.030525 
2148.918937  	110.487841 
2150.350595  	109.820336 
2151.782253  	109.957452 
2153.213912  	109.833747 
2154.645570  	109.445989 
2156.077228  	110.090776 
2157.508886  	109.739151 
2158.940544  	109.734798 
2160.372202  	109.988713 
2161.803861  	109.170399 
2163.235519  	109.834256 
2164.667177  	110.013374 
2166.098835  	109.349699 
2167.530493  	109.916650 
2168.962152  	110.139695 
2170.393810  	110.564165 
2171.825468  	110.987671 
2173.257126  	110.315639 
2174.688784  	110.526909 
2176.120443  	110.438049 
2177.552101  	109.778958 
2178.983759  	110.325235 
2180.415417  	110.168413 
2181.847075  	109.843690 
2183.278733  	110.034703 
2184.710392  	109.546728 
2186.142050  	110.043926 
2187.573708  	110.416334 
2189.005366  	109.791589 
2190.437024  	110.232195 
2191.868683  	110.404647 
2193.300341  	110.287251 
2194.731999  	110.740617 
2196.163657  	110.426231 
2197.595315  	110.593399 
2199.026974  	110.994320 
2200.458632  	110.390456 
2201.890290  	110.461638 
2203.321948  	110.720906 
2204.753606  	110.708825 
2206.185264  	110.996520 
2207.616923  	110.622719 
2209.048581  	110.473173 
2210.480239  	110.673209 
2211.911897  	110.478626 
2213.343555  	110.929199 
2214.775214  	111.044808 
2216.206872  	110.610784 
2217.638530  	110.899889 
2219.070188  	110.872904 
2220.501846  	110.741238 
2221.933504  	110.963008 
2223.365163  	110.840499 
2224.796821  	110.921551 
2226.228479  	110.701098 
2227.660137  	110.343580 
2229.091795  	110.900134 
2230.523454  	111.197982 
2231.955112  	111.176068 
2233.386770  	111.243512 
2234.818428  	110.892624 
2236.250086  	110.997165 
2237.681745  	111.190291 
2239.113403  	110.915347 
2240.545061  	111.006479 
2241.976719  	111.012450 
2243.408377  	111.010290 
2244.840035  	111.205581 
2246.271694  	110.990409 
2247.703352  	111.059186 
2249.135010  	111.208456 
2250.566668  	110.975548 
2251.998326  	111.061626 
2253.429985  	111.074112 
2254.861643  	111.072284 
2256.293301  	111.149475 
2257.724959  	110.787217 
2259.156617  	110.910579 
2260.588276  	111.184909 
2262.019934  	110.899235 
2263.451592  	111.005180 
2264.883250  	111.081467 
2266.314908  	111.063061 
2267.746566  	111.497785 
2269.178225  	111.405757 
2270.609883  	111.061583 
2272.041541  	110.957685 
2273.473199  	110.826292 
2274.904857  	111.198445 
2276.336516  	111.454907 
2277.768174  	111.208023 
2279.199832  	111.197746 
2280.631490  	111.019268 
2282.063148  	110.846454 
2283.494806  	111.063297 
2284.926465  	111.153817 
2286.358123  	111.243989 
2287.789781  	111.205021 
2289.221439  	111.069633 
2290.653097  	111.266390 
2292.084756  	111.196409 
2293.516414  	110.999567 
2294.948072  	111.136929 
2296.379730  	111.078923 
2297.811388  	111.049120 
2299.243047  	111.134295 
2300.674705  	110.975680 
2302.106363  	110.933491 
2303.538021  	110.902424 
2304.969679  	110.855822 
2306.401337  	110.998958 
2307.832996  	110.916171 
2309.264654  	110.858632 
2310.696312  	110.947472 
2312.127970  	110.761548 
2313.559628  	110.695426 
2314.991287  	110.766806 
2316.422945  	110.747889 
2317.854603  	110.757904 
2319.286261  	110.501970 
2320.717919  	110.281997 
2322.149577  	110.371423 
2323.581236  	110.360929 
2325.012894  	110.397089 
2326.444552  	110.350038 
2327.876210  	110.099399 
2329.307868  	110.031923 
2330.739527  	109.972104 
2332.171185  	109.938831 
2333.602843  	110.032263 
2335.034501  	109.951742 
2336.466159  	109.965514 
2337.897818  	109.941052 
2339.329476  	109.720367 
2340.761134  	109.740819 
2342.192792  	109.663080 
2343.624450  	109.552023 
2345.056108  	109.769551 
2346.487767  	109.972239 
2347.919425  	110.324042 
2349.351083  	110.526689 
2350.782741  	110.168561 
2352.214399  	109.861945 
2353.646058  	109.830750 
2355.077716  	109.636621 
2356.509374  	109.507176 
2357.941032  	109.325393 
2359.372690  	109.226891 
2360.804349  	109.335691 
2362.236007  	109.290220 
2363.667665  	109.499612 
2365.099323  	109.692600 
2366.530981  	109.585302 
2367.962639  	109.743259 
2369.394298  	109.870087 
2370.825956  	110.031776 
2372.257614  	110.373444 
2373.689272  	110.415380 
2375.120930  	110.517003 
2376.552589  	110.688610 
2377.984247  	110.703590 
2379.415905  	110.951714 
2380.847563  	111.181007 
2382.279221  	111.277355 
2383.710879  	111.496213 
2385.142538  	111.584214 
2386.574196  	111.634761 
2388.005854  	111.705702 
2389.437512  	111.610426 
2390.869170  	111.675193 
2392.300829  	111.781276 
2393.732487  	111.689755 
2395.164145  	111.722837 
2396.595803  	111.791408 
2398.027461  	111.775607 
2399.459120  	111.791021 
2400.890778  	111.798723 
2402.322436  	111.806212 
2403.754094  	111.694428 
2405.185752  	111.621874 
2406.617410  	111.754491 
2408.049069  	111.735661 
2409.480727  	111.672930 
2410.912385  	111.684440 
2412.344043  	111.626028 
2413.775701  	111.727589 
2415.207360  	111.706267 
2416.639018  	111.524974 
2418.070676  	111.715809 
2419.502334  	111.873266 
2420.933992  	111.811629 
2422.365651  	111.823132 
2423.797309  	111.716643 
2425.228967  	111.726768 
2426.660625  	111.867375 
2428.092283  	111.797352 
2429.523941  	111.745522 
2430.955600  	111.661167 
2432.387258  	111.611359 
2433.818916  	111.813454 
2435.250574  	111.857931 
2436.682232  	111.798750 
2438.113891  	111.804097 
2439.545549  	111.732326 
2440.977207  	111.799768 
2442.408865  	111.817237 
2443.840523  	111.712314 
2445.272181  	111.784883 
2446.703840  	111.750085 
2448.135498  	111.690626 
2449.567156  	111.825850 
2450.998814  	111.875094 
2452.430472  	111.928519 
2453.862131  	111.949515 
2455.293789  	111.866423 
2456.725447  	111.869839 
2458.157105  	111.767493 
2459.588763  	111.693592 
2461.020422  	111.788824 
2462.452080  	111.770961 
2463.883738  	111.811678 
2465.315396  	111.806634 
2466.747054  	111.594720 
2468.178712  	111.590761 
2469.610371  	111.669621 
2471.042029  	111.672574 
2472.473687  	111.732839 
2473.905345  	111.712932 
2475.337003  	111.726649 
2476.768662  	111.692650 
2478.200320  	111.524037 
2479.631978  	111.559209 
2481.063636  	111.595509 
2482.495294  	111.553744 
2483.926953  	111.622388 
2485.358611  	111.584925 
2486.790269  	111.633303 
2488.221927  	111.756532 
2489.653585  	111.698668 
2491.085243  	111.775679 
2492.516902  	111.781435 
2493.948560  	111.594156 
2495.380218  	111.605381 
2496.811876  	111.559435 
2498.243534  	111.525358 
2499.675193  	111.725550 
2501.106851  	111.783003 
2502.538509  	111.802726 
2503.970167  	111.838589 
2505.401825  	111.708183 
2506.833483  	111.648780 
2508.265142  	111.660325 
2509.696800  	111.708089 
2511.128458  	111.759689 
2512.560116  	111.694633 
2513.991774  	111.761630 
2515.423433  	111.820053 
2516.855091  	111.711306 
2518.286749  	111.727648 
2519.718407  	111.740551 
2521.150065  	111.806694 
2522.581724  	111.950881 
2524.013382  	111.815544 
2525.445040  	111.763897 
2526.876698  	111.917075 
2528.308356  	111.942385 
2529.740014  	111.999409 
2531.171673  	111.970595 
2532.603331  	111.864301 
2534.034989  	111.876292 
2535.466647  	111.823052 
2536.898305  	111.934384 
2538.329964  	112.085005 
2539.761622  	111.940825 
2541.193280  	111.963271 
2542.624938  	111.970190 
2544.056596  	111.745259 
2545.488254  	111.783782 
2546.919913  	111.858495 
2548.351571  	111.800153 
2549.783229  	111.775343 
2551.214887  	111.693611 
2552.646545  	111.781867 
2554.078204  	111.885083 
2555.509862  	111.758960 
2556.941520  	111.699714 
2558.373178  	111.634441 
2559.804836  	111.610618 
2561.236495  	111.681823 
2562.668153  	111.616284 
2564.099811  	111.707568 
2565.531469  	111.780657 
2566.963127  	111.578258 
2568.394785  	111.619481 
2569.826444  	111.702818 
2571.258102  	111.645453 
2572.689760  	111.761334 
2574.121418  	111.717309 
2575.553076  	111.596001 
2576.984735  	111.666395 
2578.416393  	111.675470 
2579.848051  	111.737383 
2581.279709  	111.759856 
2582.711367  	111.634552 
2584.143026  	111.696071 
2585.574684  	111.757278 
2587.006342  	111.696681 
2588.438000  	111.668826 
2589.869658  	111.583359 
2591.301316  	111.561817 
2592.732975  	111.560359 
2594.164633  	111.497065 
2595.596291  	111.545154 
2597.027949  	111.546235 
2598.459607  	111.548223 
2599.891266  	111.672702 
2601.322924  	111.679290 
2602.754582  	111.674456 
2604.186240  	111.667502 
2605.617898  	111.563645 
2607.049556  	111.595311 
2608.481215  	111.609416 
2609.912873  	111.524092 
2611.344531  	111.554729 
2612.776189  	111.609347 
2614.207847  	111.688512 
2615.639506  	111.727521 
2617.071164  	111.624712 
2618.502822  	111.584699 
2619.934480  	111.534045 
2621.366138  	111.476404 
2622.797797  	111.578746 
2624.229455  	111.616813 
2625.661113  	111.591512 
2627.092771  	111.602683 
2628.524429  	111.539749 
2629.956087  	111.525194 
2631.387746  	111.551297 
2632.819404  	111.541055 
2634.251062  	111.560882 
2635.682720  	111.539262 
2637.114378  	111.534607 
2638.546037  	111.528951 
2639.977695  	111.439808 
2641.409353  	111.466631 
2642.841011  	111.503709 
2644.272669  	111.425547 
2645.704328  	111.426312 
2647.135986  	111.413367 
2648.567644  	111.372469 
2649.999302  	111.409857 
2651.430960  	111.396318 
2652.862618  	111.382622 
2654.294277  	111.395459 
2655.725935  	111.379968 
2657.157593  	111.408165 
2658.589251  	111.366241 
2660.020909  	111.265645 
2661.452568  	111.226414 
2662.884226  	111.166563 
2664.315884  	111.157580 
2665.747542  	111.165915 
2667.179200  	111.076772 
2668.610858  	111.055299 
2670.042517  	111.039418 
2671.474175  	110.954366 
2672.905833  	110.942391 
2674.337491  	110.908362 
2675.769149  	110.867959 
2677.200808  	110.904181 
2678.632466  	110.884943 
2680.064124  	110.833791 
2681.495782  	110.775759 
2682.927440  	110.716548 
2684.359099  	110.713137 
2685.790757  	110.650441 
2687.222415  	110.578405 
2688.654073  	110.563859 
2690.085731  	110.479507 
2691.517389  	110.404536 
2692.949048  	110.354568 
2694.380706  	110.273968 
2695.812364  	110.238215 
2697.244022  	110.156832 
2698.675680  	110.067386 
2700.107339  	110.054954 
2701.538997  	109.979134 
2702.970655  	109.911027 
2704.402313  	109.887354 
2705.833971  	109.823842 
2707.265630  	109.801946 
2708.697288  	109.747729 
2710.128946  	109.666352 
2711.560604  	109.658116 
2712.992262  	109.594006 
2714.423920  	109.541009 
2715.855579  	109.539593 
2717.287237  	109.472262 
2718.718895  	109.459814 
2720.150553  	109.434771 
2721.582211  	109.306602 
2723.013870  	109.234437 
2724.445528  	109.133323 
2725.877186  	108.989814 
2727.308844  	108.928198 
2728.740502  	108.864554 
2730.172160  	108.801209 
2731.603819  	108.739645 
2733.035477  	108.662766 
2734.467135  	108.640680 
2735.898793  	108.596782 
2737.330451  	108.547273 
2738.762110  	108.527134 
2740.193768  	108.443208 
2741.625426  	108.385126 
2743.057084  	108.357728 
2744.488742  	108.328324 
2745.920401  	108.356654 
2747.352059  	108.290591 
2748.783717  	108.217536 
2750.215375  	108.295298 
2751.647033  	108.295298 
2753.078691  	108.239793 
2754.510350  	108.224627 
2755.942008  	108.165345 
2757.373666  	108.158430 
2758.805324  	108.130764 
2760.236982  	108.047671 
2761.668641  	108.067660 
2763.100299  	108.044736 
2764.531957  	107.965786 
2765.963615  	107.954889 
2767.395273  	107.900837 
2768.826931  	107.825192 
2770.258590  	107.728233 
2771.690248  	107.593100 
2773.121906  	107.536760 
2774.553564  	107.440487 
2775.985222  	107.261265 
2777.416881  	107.102273 
2778.848539  	106.909317 
2780.280197  	106.736098 
2781.711855  	106.553827 
2783.143513  	106.260644 
2784.575172  	105.972390 
2786.006830  	105.671482 
2787.438488  	105.309286 
2788.870146  	104.952381 
2790.301804  	104.591714 
2791.733462  	104.268169 
2793.165121  	103.958834 
2794.596779  	103.679824 
2796.028437  	103.565423 
2797.460095  	103.520707 
2798.891753  	103.545512 
2800.323412  	103.735863 
2801.755070  	103.939189 
2803.186728  	104.161188 
2804.618386  	104.420177 
2806.050044  	104.619433 
2807.481703  	104.861544 
2808.913361  	105.092494 
2810.345019  	105.254637 
2811.776677  	105.428724 
2813.208335  	105.474752 
2814.639993  	105.431923 
2816.071652  	105.365969 
2817.503310  	105.147622 
2818.934968  	104.911996 
2820.366626  	104.627730 
2821.798284  	104.162544 
2823.229943  	103.705569 
2824.661601  	103.233306 
2826.093259  	102.669211 
2827.524917  	102.017073 
2828.956575  	101.153602 
2830.388233  	100.242519 
2831.819892  	99.381855 
2833.251550  	98.398761 
2834.683208  	97.322878 
2836.114866  	96.152875 
2837.546524  	94.909083 
2838.978183  	93.688216 
2840.409841  	92.358920 
2841.841499  	90.930183 
2843.273157  	89.473148 
2844.704815  	87.829724 
2846.136474  	85.977366 
2847.568132  	84.085666 
2848.999790  	82.563175 
2850.431448  	81.880114 
2851.863106  	81.926541 
2853.294764  	82.249373 
2854.726423  	82.590755 
2856.158081  	82.826307 
2857.589739  	83.042638 
2859.021397  	83.343023 
2860.453055  	83.680748 
2861.884714  	84.084470 
2863.316372  	84.520232 
2864.748030  	84.980186 
2866.179688  	85.534084 
2867.611346  	86.068237 
2869.043005  	86.616801 
2870.474663  	87.304967 
2871.906321  	88.064623 
2873.337979  	88.956644 
2874.769637  	89.978081 
2876.201295  	91.005957 
2877.632954  	92.071137 
2879.064612  	93.077494 
2880.496270  	93.971524 
2881.927928  	94.792313 
2883.359586  	95.399164 
2884.791245  	95.837368 
2886.222903  	96.186958 
2887.654561  	96.350730 
2889.086219  	96.372915 
2890.517877  	96.281805 
2891.949535  	96.106312 
2893.381194  	95.924934 
2894.812852  	95.682362 
2896.244510  	95.433291 
2897.676168  	95.209790 
2899.107826  	94.897441 
2900.539485  	94.587856 
2901.971143  	94.335503 
2903.402801  	94.024511 
2904.834459  	93.640077 
2906.266117  	93.176679 
2907.697776  	92.647746 
2909.129434  	92.059115 
2910.561092  	91.300161 
2911.992750  	90.314218 
2913.424408  	89.117518 
2914.856066  	87.879822 
2916.287725  	86.983712 
2917.719383  	86.638866 
2919.151041  	86.762296 
2920.582699  	87.220054 
2922.014357  	87.840148 
2923.446016  	88.442459 
2924.877674  	88.883093 
2926.309332  	89.110422 
2927.740990  	89.202596 
2929.172648  	89.171294 
2930.604306  	88.989976 
2932.035965  	88.729921 
2933.467623  	88.460453 
2934.899281  	88.195609 
2936.330939  	87.957383 
2937.762597  	87.818527 
2939.194256  	87.789083 
2940.625914  	87.802479 
2942.057572  	87.903830 
2943.489230  	88.123486 
2944.920888  	88.398015 
2946.352547  	88.766540 
2947.784205  	89.220285 
2949.215863  	89.695202 
2950.647521  	90.222707 
2952.079179  	90.742186 
2953.510837  	91.266247 
2954.942496  	91.930067 
2956.374154  	92.634753 
2957.805812  	93.295921 
2959.237470  	94.031692 
2960.669128  	94.872921 
2962.100787  	95.757325 
2963.532445  	96.661215 
2964.964103  	97.618427 
2966.395761  	98.578400 
2967.827419  	99.487634 
2969.259078  	100.467007 
2970.690736  	101.434714 
2972.122394  	102.237212 
2973.554052  	103.023495 
2974.985710  	103.812510 
2976.417368  	104.538943 
2977.849027  	105.230784 
2979.280685  	105.814521 
2980.712343  	106.353282 
2982.144001  	106.869992 
2983.575659  	107.261113 
2985.007318  	107.617889 
2986.438976  	107.938001 
2987.870634  	108.215234 
2989.302292  	108.514930 
2990.733950  	108.706691 
2992.165608  	108.857453 
2993.597267  	109.041531 
2995.028925  	109.135372 
2996.460583  	109.232649 
2997.892241  	109.281397 
2999.323899  	109.231504 
3000.755558  	109.293950 
3002.187216  	109.347060 
3003.618874  	109.327613 
3005.050532  	109.378264 
3006.482190  	109.376852 
3007.913849  	109.356734 
3009.345507  	109.358457 
3010.777165  	109.295739 
3012.208823  	109.341642 
3013.640481  	109.463999 
3015.072139  	109.491138 
3016.503798  	109.474458 
3017.935456  	109.423306 
3019.367114  	109.424026 
3020.798772  	109.438169 
3022.230430  	109.298137 
3023.662089  	109.154632 
3025.093747  	109.031587 
3026.525405  	108.826924 
3027.957063  	108.621356 
3029.388721  	108.382027 
3030.820380  	108.175331 
3032.252038  	108.059980 
3033.683696  	107.901552 
3035.115354  	107.793979 
3036.547012  	107.732107 
3037.978670  	107.602558 
3039.410329  	107.525353 
3040.841987  	107.453626 
3042.273645  	107.389373 
3043.705303  	107.459207 
3045.136961  	107.528649 
3046.568620  	107.578200 
3048.000278  	107.647288 
3049.431936  	107.707166 
3050.863594  	107.878219 
3052.295252  	108.013326 
3053.726910  	107.978336 
3055.158569  	107.992381 
3056.590227  	108.042436 
3058.021885  	108.062199 
3059.453543  	108.135092 
3060.885201  	108.210088 
3062.316860  	108.283287 
3063.748518  	108.364431 
3065.180176  	108.443696 
3066.611834  	108.568238 
3068.043492  	108.700792 
3069.475151  	108.863670 
3070.906809  	109.029728 
3072.338467  	109.102251 
3073.770125  	109.220533 
3075.201783  	109.399085 
3076.633441  	109.512733 
3078.065100  	109.643177 
3079.496758  	109.776326 
3080.928416  	109.837606 
3082.360074  	109.891674 
3083.791732  	109.996484 
3085.223391  	110.136781 
3086.655049  	110.184543 
3088.086707  	110.166391 
3089.518365  	110.214656 
3090.950023  	110.239627 
3092.381682  	110.263897 
3093.813340  	110.309411 
3095.244998  	110.222448 
3096.676656  	110.126069 
3098.108314  	110.105766 
3099.539972  	110.045289 
3100.971631  	109.967726 
3102.403289  	109.838777 
3103.834947  	109.713991 
3105.266605  	109.713598 
3106.698263  	109.693463 
3108.129922  	109.576887 
3109.561580  	109.392448 
3110.993238  	109.198006 
3112.424896  	109.110976 
3113.856554  	109.023626 
3115.288212  	108.894979 
3116.719871  	108.814273 
3118.151529  	108.712181 
3119.583187  	108.657694 
3121.014845  	108.644265 
3122.446503  	108.553692 
3123.878162  	108.525200 
3125.309820  	108.537186 
3126.741478  	108.556862 
3128.173136  	108.725276 
3129.604794  	108.906011 
3131.036453  	109.088451 
3132.468111  	109.375385 
3133.899769  	109.618050 
3135.331427  	109.795888 
3136.763085  	109.886340 
3138.194743  	109.940317 
3139.626402  	110.164916 
3141.058060  	110.369766 
3142.489718  	110.449866 
3143.921376  	110.586183 
3145.353034  	110.711357 
3146.784693  	110.790349 
3148.216351  	110.803931 
3149.648009  	110.770159 
3151.079667  	110.842910 
3152.511325  	110.848150 
3153.942983  	110.772483 
3155.374642  	110.828716 
3156.806300  	110.828932 
3158.237958  	110.766775 
3159.669616  	110.749013 
3161.101274  	110.672526 
3162.532933  	110.675883 
3163.964591  	110.677339 
3165.396249  	110.503369 
3166.827907  	110.404160 
3168.259565  	110.384411 
3169.691224  	110.294111 
3171.122882  	110.150776 
3172.554540  	109.960011 
3173.986198  	109.875798 
3175.417856  	109.835196 
3176.849514  	109.653570 
3178.281173  	109.486788 
3179.712831  	109.314763 
3181.144489  	109.060869 
3182.576147  	108.840131 
3184.007805  	108.613938 
3185.439464  	108.435697 
3186.871122  	108.310934 
3188.302780  	108.136562 
3189.734438  	108.099189 
3191.166096  	108.164932 
3192.597755  	108.134186 
3194.029413  	108.155304 
3195.461071  	108.265420 
3196.892729  	108.391091 
3198.324387  	108.536704 
3199.756045  	108.606789 
3201.187704  	108.636181 
3202.619362  	108.708023 
3204.051020  	108.788735 
3205.482678  	108.835179 
3206.914336  	108.816925 
3208.345995  	108.839272 
3209.777653  	108.891240 
3211.209311  	108.823401 
3212.640969  	108.761494 
3214.072627  	108.747324 
3215.504285  	108.650908 
3216.935944  	108.508205 
3218.367602  	108.333387 
3219.799260  	108.182840 
3221.230918  	108.100925 
3222.662576  	107.983983 
3224.094235  	107.871567 
3225.525893  	107.750754 
3226.957551  	107.553037 
3228.389209  	107.381769 
3229.820867  	107.201102 
3231.252526  	106.996938 
3232.684184  	106.869799 
3234.115842  	106.734126 
3235.547500  	106.545610 
3236.979158  	106.316501 
3238.410816  	106.071463 
3239.842475  	105.922714 
3241.274133  	105.786011 
3242.705791  	105.587773 
3244.137449  	105.413859 
3245.569107  	105.233479 
3247.000766  	105.039291 
3248.432424  	104.801227 
3249.864082  	104.521659 
3251.295740  	104.365696 
3252.727398  	104.220128 
3254.159057  	103.947050 
3255.590715  	103.683696 
3257.022373  	103.415445 
3258.454031  	103.169262 
3259.885689  	103.021318 
3261.317347  	102.828667 
3262.749006  	102.569536 
3264.180664  	102.275266 
3265.612322  	101.965661 
3267.043980  	101.771951 
3268.475638  	101.598964 
3269.907297  	101.310617 
3271.338955  	100.989314 
3272.770613  	100.690403 
3274.202271  	100.430307 
3275.633929  	100.153195 
3277.065587  	99.831517 
3278.497246  	99.536281 
3279.928904  	99.187602 
3281.360562  	98.801432 
3282.792220  	98.478949 
3284.223878  	98.090339 
3285.655537  	97.634516 
3287.087195  	97.206257 
3288.518853  	96.769381 
3289.950511  	96.378032 
3291.382169  	96.017524 
3292.813828  	95.640661 
3294.245486  	95.294104 
3295.677144  	94.884479 
3297.108802  	94.459130 
3298.540460  	94.180601 
3299.972118  	93.915773 
3301.403777  	93.608753 
3302.835435  	93.414178 
3304.267093  	93.321080 
3305.698751  	93.234228 
3307.130409  	93.174655 
3308.562068  	93.201903 
3309.993726  	93.243428 
3311.425384  	93.220931 
3312.857042  	93.176583 
3314.288700  	93.066937 
3315.720359  	92.922835 
3317.152017  	92.888258 
3318.583675  	92.892867 
3320.015333  	92.853988 
3321.446991  	92.807723 
3322.878649  	92.794356 
3324.310308  	92.889905 
3325.741966  	93.006742 
3327.173624  	93.057967 
3328.605282  	93.179533 
3330.036940  	93.372013 
3331.468599  	93.563680 
3332.900257  	93.795064 
3334.331915  	94.085967 
3335.763573  	94.431738 
3337.195231  	94.766016 
3338.626889  	95.153996 
3340.058548  	95.707307 
3341.490206  	96.244813 
3342.921864  	96.747277 
3344.353522  	97.329907 
3345.785180  	97.871294 
3347.216839  	98.441499 
3348.648497  	99.049206 
3350.080155  	99.509573 
3351.511813  	100.023367 
3352.943471  	100.682289 
3354.375130  	101.269393 
3355.806788  	101.797754 
3357.238446  	102.303983 
3358.670104  	102.784709 
3360.101762  	103.301812 
3361.533420  	103.831702 
3362.965079  	104.323069 
3364.396737  	104.743675 
3365.828395  	105.157704 
3367.260053  	105.573813 
3368.691711  	105.874414 
3370.123370  	106.167555 
3371.555028  	106.494211 
3372.986686  	106.748440 
3374.418344  	107.017918 
3375.850002  	107.228901 
3377.281660  	107.350195 
3378.713319  	107.569726 
3380.144977  	107.773927 
3381.576635  	107.923451 
3383.008293  	108.116410 
3384.439951  	108.251158 
3385.871610  	108.378762 
3387.303268  	108.473628 
3388.734926  	108.485883 
3390.166584  	108.626687 
3391.598242  	108.789388 
3393.029901  	108.855932 
3394.461559  	108.964729 
3395.893217  	109.015510 
3397.324875  	109.059571 
3398.756533  	109.234524 
3400.188191  	109.395223 
3401.619850  	109.505979 
3403.051508  	109.542280 
3404.483166  	109.526947 
3405.914824  	109.596823 
3407.346482  	109.683796 
3408.778141  	109.787458 
3410.209799  	109.916237 
3411.641457  	109.981291 
3413.073115  	110.072719 
3414.504773  	110.127563 
3415.936432  	110.124946 
3417.368090  	110.232035 
3418.799748  	110.300804 
3420.231406  	110.311706 
3421.663064  	110.390435 
3423.094722  	110.388902 
3424.526381  	110.374536 
3425.958039  	110.445897 
3427.389697  	110.524702 
3428.821355  	110.605640 
3430.253013  	110.632268 
3431.684672  	110.684580 
3433.116330  	110.749378 
3434.547988  	110.664080 
3435.979646  	110.679126 
3437.411304  	110.804443 
3438.842962  	110.779521 
3440.274621  	110.766483 
3441.706279  	110.770892 
3443.137937  	110.768985 
3444.569595  	110.875684 
3446.001253  	110.905197 
3447.432912  	110.959435 
3448.864570  	111.122832 
3450.296228  	111.156772 
3451.727886  	111.212366 
3453.159544  	111.236274 
3454.591203  	111.122680 
3456.022861  	111.168599 
3457.454519  	111.224289 
3458.886177  	111.172706 
3460.317835  	111.253966 
3461.749493  	111.313875 
3463.181152  	111.295220 
3464.612810  	111.337561 
3466.044468  	111.405704 
3467.476126  	111.467862 
3468.907784  	111.414618 
3470.339443  	111.373741 
3471.771101  	111.455273 
3473.202759  	111.409271 
3474.634417  	111.360217 
3476.066075  	111.411238 
3477.497734  	111.369233 
3478.929392  	111.382436 
3480.361050  	111.397699 
3481.792708  	111.329998 
3483.224366  	111.409170 
3484.656024  	111.434973 
3486.087683  	111.365558 
3487.519341  	111.438409 
3488.950999  	111.473992 
3490.382657  	111.437350 
3491.814315  	111.441164 
3493.245974  	111.440172 
3494.677632  	111.478472 
3496.109290  	111.494815 
3497.540948  	111.480983 
3498.972606  	111.465503 
3500.404264  	111.373904 
3501.835923  	111.381791 
3503.267581  	111.468230 
3504.699239  	111.436610 
3506.130897  	111.481313 
3507.562555  	111.553122 
3508.994214  	111.526546 
3510.425872  	111.513486 
3511.857530  	111.482769 
3513.289188  	111.505594 
3514.720846  	111.580904 
3516.152505  	111.555463 
3517.584163  	111.587725 
3519.015821  	111.660745 
3520.447479  	111.580344 
3521.879137  	111.474826 
3523.310795  	111.468614 
3524.742454  	111.557273 
3526.174112  	111.573734 
3527.605770  	111.504436 
3529.037428  	111.596516 
3530.469086  	111.704970 
3531.900745  	111.736769 
3533.332403  	111.835880 
3534.764061  	111.826496 
3536.195719  	111.794648 
3537.627377  	111.892436 
3539.059035  	111.879283 
3540.490694  	111.872110 
3541.922352  	111.946746 
3543.354010  	111.915934 
3544.785668  	111.880704 
3546.217326  	111.907624 
3547.648985  	112.019676 
3549.080643  	112.146452 
3550.512301  	112.065325 
3551.943959  	111.969765 
3553.375617  	112.020131 
3554.807276  	112.086336 
3556.238934  	112.219983 
3557.670592  	112.291121 
3559.102250  	112.238538 
3560.533908  	112.276716 
3561.965566  	112.353863 
3563.397225  	112.377947 
3564.828883  	112.251966 
3566.260541  	112.034989 
3567.692199  	112.238737 
3569.123857  	112.504976 
3570.555516  	112.417772 
3571.987174  	112.431983 
3573.418832  	112.448183 
3574.850490  	112.366596 
3576.282148  	112.413341 
3577.713807  	112.493592 
3579.145465  	112.581270 
3580.577123  	112.668068 
3582.008781  	112.647735 
3583.440439  	112.635074 
3584.872097  	112.542750 
3586.303756  	112.389424 
3587.735414  	112.572674 
3589.167072  	112.901924 
3590.598730  	112.903423 
3592.030388  	112.772540 
3593.462047  	112.619760 
3594.893705  	112.531918 
3596.325363  	112.602755 
3597.757021  	112.777214 
3599.188679  	112.882915 
3600.620337  	112.943806 
3602.051996  	113.071893 
3603.483654  	113.040781 
3604.915312  	112.954917 
3606.346970  	113.014426 
3607.778628  	112.953424 
3609.210287  	112.999882 
3610.641945  	113.197987 
3612.073603  	112.924044 
3613.505261  	112.743275 
3614.936919  	113.093092 
3616.368578  	113.085481 
3617.800236  	112.848689 
3619.231894  	112.895788 
3620.663552  	113.137106 
3622.095210  	113.268017 
3623.526868  	113.223906 
3624.958527  	113.201484 
3626.390185  	113.076323 
3627.821843  	112.644852 
3629.253501  	112.740436 
3630.685159  	113.451353 
3632.116818  	113.287589 
3633.548476  	113.152216 
3634.980134  	113.309698 
3636.411792  	113.333029 
3637.843450  	113.327649 
3639.275109  	113.364352 
3640.706767  	113.373885 
3642.138425  	113.405555 
3643.570083  	113.433892 
3645.001741  	113.428147 
3646.433399  	113.318715 
3647.865058  	113.151649 
3649.296716  	113.080881 
3650.728374  	113.210580 
3652.160032  	113.714337 
3653.591690  	113.747188 
3655.023349  	113.363825 
3656.455007  	113.371424 
3657.886665  	113.707144 
3659.318323  	113.611853 
3660.749981  	113.594005 
3662.181639  	113.714113 
3663.613298  	113.726994 
3665.044956  	113.748674 
3666.476614  	113.741828 
3667.908272  	113.631568 
3669.339930  	113.431494 
3670.771589  	113.558086 
3672.203247  	113.871344 
3673.634905  	113.519702 
3675.066563  	113.168971 
3676.498221  	114.001575 
3677.929880  	114.082209 
3679.361538  	113.806800 
3680.793196  	113.940152 
3682.224854  	113.904691 
3683.656512  	113.837298 
3685.088170  	113.902262 
3686.519829  	113.703353 
3687.951487  	113.597101 
3689.383145  	113.893885 
3690.814803  	113.964283 
3692.246461  	114.024105 
3693.678120  	114.098855 
3695.109778  	113.937441 
3696.541436  	113.820936 
3697.973094  	113.893207 
3699.404752  	113.889261 
3700.836411  	113.855397 
3702.268069  	114.052975 
3703.699727  	114.162852 
3705.131385  	114.034653 
3706.563043  	114.013219 
3707.994701  	114.007399 
3709.426360  	113.830685 
3710.858018  	113.690485 
3712.289676  	113.809983 
3713.721334  	114.257008 
3715.152992  	114.503255 
3716.584651  	114.304221 
3718.016309  	114.108952 
3719.447967  	114.099590 
3720.879625  	113.971382 
3722.311283  	113.882564 
3723.742941  	113.989038 
3725.174600  	114.003896 
3726.606258  	113.959331 
3728.037916  	114.050412 
3729.469574  	114.101324 
3730.901232  	114.005312 
3732.332891  	113.987725 
3733.764549  	113.959048 
3735.196207  	113.710375 
3736.627865  	114.090311 
3738.059523  	114.461785 
3739.491182  	114.185371 
3740.922840  	114.232111 
3742.354498  	114.204274 
3743.786156  	113.578837 
3745.217814  	113.933328 
3746.649472  	114.493310 
3748.081131  	113.938206 
3749.512789  	113.809440 
3750.944447  	114.172467 
3752.376105  	114.168135 
3753.807763  	114.434393 
3755.239422  	114.385412 
3756.671080  	114.184754 
3758.102738  	114.271211 
3759.534396  	114.228973 
3760.966054  	114.252159 
3762.397712  	114.375929 
3763.829371  	114.110880 
3765.261029  	113.933851 
3766.692687  	114.188132 
3768.124345  	114.188686 
3769.556003  	114.037545 
3770.987662  	114.200251 
3772.419320  	114.374569 
3773.850978  	114.276627 
3775.282636  	114.220484 
3776.714294  	114.322490 
3778.145953  	114.178318 
3779.577611  	113.967691 
3781.009269  	114.184389 
3782.440927  	114.247375 
3783.872585  	114.079544 
3785.304243  	114.085982 
3786.735902  	114.167902 
3788.167560  	114.204708 
3789.599218  	114.204682 
3791.030876  	114.165953 
3792.462534  	114.266029 
3793.894193  	114.322926 
3795.325851  	114.143629 
3796.757509  	114.050741 
3798.189167  	114.126336 
3799.620825  	113.930140 
3801.052484  	113.629778 
3802.484142  	114.031542 
3803.915800  	114.387950 
3805.347458  	114.077878 
3806.779116  	113.947659 
3808.210774  	114.397842 
3809.642433  	114.369624 
3811.074091  	114.127075 
3812.505749  	114.108614 
3813.937407  	114.029774 
3815.369065  	113.876136 
3816.800724  	114.121389 
3818.232382  	114.207411 
3819.664040  	113.822645 
3821.095698  	113.701131 
3822.527356  	114.327764 
3823.959014  	114.285413 
3825.390673  	113.999899 
3826.822331  	114.045914 
3828.253989  	114.032912 
3829.685647  	113.811590 
3831.117305  	113.776369 
3832.548964  	113.920369 
3833.980622  	114.063119 
3835.412280  	114.103635 
3836.843938  	113.985665 
3838.275596  	113.931360 
3839.707255  	113.964951 
3841.138913  	113.941830 
3842.570571  	113.943968 
3844.002229  	113.995474 
3845.433887  	114.106458 
3846.865545  	114.073008 
3848.297204  	113.929486 
3849.728862  	113.976110 
3851.160520  	113.923816 
3852.592178  	113.539391 
3854.023836  	113.747373 
3855.455495  	114.261708 
3856.887153  	114.210863 
3858.318811  	114.217584 
3859.750469  	114.099702 
3861.182127  	113.949694 
3862.613786  	113.928662 
3864.045444  	113.696926 
3865.477102  	113.725930 
3866.908760  	114.121938 
3868.340418  	113.913767 
3869.772076  	113.669162 
3871.203735  	114.200782 
3872.635393  	114.173662 
3874.067051  	113.929285 
3875.498709  	114.181626 
3876.930367  	114.190965 
3878.362026  	113.888150 
3879.793684  	113.825833 
3881.225342  	114.072987 
3882.657000  	114.129719 
3884.088658  	113.859059 
3885.520316  	113.623082 
3886.951975  	114.062403 
3888.383633  	114.302260 
3889.815291  	114.001231 
3891.246949  	113.874388 
3892.678607  	114.144388 
3894.110266  	114.178132 
3895.541924  	114.097952 
3896.973582  	113.942480 
3898.405240  	113.721571 
3899.836898  	113.787107 
3901.268557  	113.913377 
3902.700215  	113.798397 
3904.131873  	113.878814 
3905.563531  	114.113990 
3906.995189  	114.148055 
3908.426847  	114.079624 
3909.858506  	113.998947 
3911.290164  	114.051373 
3912.721822  	114.217252 
3914.153480  	114.164806 
3915.585138  	113.921177 
3917.016797  	113.810253 
3918.448455  	113.861834 
3919.880113  	113.881055 
3921.311771  	113.916922 
3922.743429  	113.927698 
3924.175088  	113.883018 
3925.606746  	113.956356 
3927.038404  	114.031494 
3928.470062  	113.995189 
3929.901720  	113.999293 
3931.333378  	113.925794 
3932.765037  	113.812077 
3934.196695  	113.922646 
3935.628353  	113.950778 
3937.060011  	113.870403 
3938.491669  	113.936622 
3939.923328  	113.884712 
3941.354986  	113.702007 
3942.786644  	113.749570 
3944.218302  	113.885580 
3945.649960  	113.871865 
3947.081618  	113.866043 
3948.513277  	113.962117 
3949.944935  	114.039463 
3951.376593  	113.956277 
3952.808251  	113.875243 
3954.239909  	113.903871 
3955.671568  	113.919923 
3957.103226  	113.987857 
3958.534884  	114.082526 
3959.966542  	113.995615 
3961.398200  	113.859949 
3962.829859  	113.885832 
3964.261517  	113.966901 
3965.693175  	113.921790 
3967.124833  	113.807071 
3968.556491  	113.776250 
3969.988149  	113.765927 
3971.419808  	113.785509 
3972.851466  	113.898889 
3974.283124  	113.882922 
3975.714782  	113.790371 
3977.146440  	113.787174 
3978.578099  	113.709314 
3980.009757  	113.705286 
3981.441415  	113.837930 
3982.873073  	113.795837 
3984.304731  	113.732262 
3985.736389  	113.805622 
3987.168048  	113.815267 
3988.599706  	113.761069 
3990.031364  	113.712853 
3991.463022  	113.750878 
3992.894680  	113.847941 
3994.326339  	113.836173 
3995.757997  	113.852098 
3997.189655  	113.891600 
3998.621313  	113.779655 
4000.052971  	113.740263 