##TITLE=No Description
##DATA TYPE=INFRARED SPECTRUM
##XUNITS=1/CM
##YUNITS=Abs
399.432634  	0.059236 
400.864292  	0.054844 
402.295950  	0.057605 
403.727608  	0.080898 
405.159267  	0.088743 
406.590925  	0.056695 
408.022583  	0.043000 
409.454241  	0.061102 
410.885899  	0.067363 
412.317558  	0.061456 
413.749216  	0.058416 
415.180874  	0.053846 
416.612532  	0.048889 
418.044190  	0.051860 
419.475848  	0.048066 
420.907507  	0.025498 
422.339165  	0.027166 
423.770823  	0.055829 
425.202481  	0.062752 
426.634139  	0.039852 
428.065798  	0.023392 
429.497456  	0.025455 
430.929114  	0.033610 
432.360772  	0.036248 
433.792430  	0.035006 
435.224089  	0.030852 
436.655747  	0.021405 
438.087405  	0.022421 
439.519063  	0.031074 
440.950721  	0.030916 
442.382379  	0.033054 
443.814038  	0.046290 
445.245696  	0.047139 
446.677354  	0.035223 
448.109012  	0.031224 
449.540670  	0.037045 
450.972329  	0.040776 
452.403987  	0.038432 
453.835645  	0.035296 
455.267303  	0.037058 
456.698961  	0.037831 
458.130619  	0.034971 
459.562278  	0.039595 
460.993936  	0.043763 
462.425594  	0.036681 
463.857252  	0.031887 
465.288910  	0.039390 
466.720569  	0.046167 
468.152227  	0.046209 
469.583885  	0.045990 
471.015543  	0.049133 
472.447201  	0.054188 
473.878860  	0.052687 
475.310518  	0.045630 
476.742176  	0.041716 
478.173834  	0.043257 
479.605492  	0.048089 
481.037150  	0.052440 
482.468809  	0.052895 
483.900467  	0.053494 
485.332125  	0.058723 
486.763783  	0.065201 
488.195441  	0.067409 
489.627100  	0.062940 
491.058758  	0.058804 
492.490416  	0.060191 
493.922074  	0.060039 
495.353732  	0.057894 
496.785391  	0.057761 
498.217049  	0.057182 
499.648707  	0.056426 
501.080365  	0.057073 
502.512023  	0.057061 
503.943681  	0.056063 
505.375340  	0.055751 
506.806998  	0.057322 
508.238656  	0.058715 
509.670314  	0.057576 
511.101972  	0.057452 
512.533631  	0.058471 
513.965289  	0.057768 
515.396947  	0.058065 
516.828605  	0.060666 
518.260263  	0.062730 
519.691921  	0.063662 
521.123580  	0.064190 
522.555238  	0.066390 
523.986896  	0.070778 
525.418554  	0.074609 
526.850212  	0.076375 
528.281871  	0.077444 
529.713529  	0.079429 
531.145187  	0.083277 
532.576845  	0.087724 
534.008503  	0.091381 
535.440162  	0.094486 
536.871820  	0.098768 
538.303478  	0.105148 
539.735136  	0.110597 
541.166794  	0.115459 
542.598452  	0.122849 
544.030111  	0.129069 
545.461769  	0.132803 
546.893427  	0.139077 
548.325085  	0.146851 
549.756743  	0.152191 
551.188402  	0.154584 
552.620060  	0.155114 
554.051718  	0.154622 
555.483376  	0.150634 
556.915034  	0.142812 
558.346692  	0.134554 
559.778351  	0.126576 
561.210009  	0.118595 
562.641667  	0.109550 
564.073325  	0.097774 
565.504983  	0.083768 
566.936642  	0.067521 
568.368300  	0.050872 
569.799958  	0.039034 
571.231616  	0.034943 
572.663274  	0.036767 
574.094933  	0.039144 
575.526591  	0.040278 
576.958249  	0.041845 
578.389907  	0.041892 
579.821565  	0.039337 
581.253223  	0.037093 
582.684882  	0.035782 
584.116540  	0.034057 
585.548198  	0.032590 
586.979856  	0.032190 
588.411514  	0.031982 
589.843173  	0.030150 
591.274831  	0.027473 
592.706489  	0.026770 
594.138147  	0.027040 
595.569805  	0.026424 
597.001464  	0.025613 
598.433122  	0.024902 
599.864780  	0.024893 
601.296438  	0.025314 
602.728096  	0.024424 
604.159754  	0.023630 
605.591413  	0.024285 
607.023071  	0.024568 
608.454729  	0.024196 
609.886387  	0.024044 
611.318045  	0.023906 
612.749704  	0.023822 
614.181362  	0.023851 
615.613020  	0.024158 
617.044678  	0.024446 
618.476336  	0.024082 
619.907994  	0.024259 
621.339653  	0.025575 
622.771311  	0.026553 
624.202969  	0.026896 
625.634627  	0.027517 
627.066285  	0.028753 
628.497944  	0.030216 
629.929602  	0.031606 
631.361260  	0.032981 
632.792918  	0.033240 
634.224576  	0.032165 
635.656235  	0.031413 
637.087893  	0.030563 
638.519551  	0.029227 
639.951209  	0.028559 
641.382867  	0.028179 
642.814525  	0.028210 
644.246184  	0.028878 
645.677842  	0.028847 
647.109500  	0.029342 
648.541158  	0.030628 
649.972816  	0.029939 
651.404475  	0.029350 
652.836133  	0.031325 
654.267791  	0.032387 
655.699449  	0.030948 
657.131107  	0.029596 
658.562766  	0.029817 
659.994424  	0.030732 
661.426082  	0.030979 
662.857740  	0.031105 
664.289398  	0.032124 
665.721056  	0.033959 
667.152715  	0.038194 
668.584373  	0.041422 
670.016031  	0.037301 
671.447689  	0.035552 
672.879347  	0.036770 
674.311006  	0.038049 
675.742664  	0.038117 
677.174322  	0.038053 
678.605980  	0.038912 
680.037638  	0.040271 
681.469296  	0.040956 
682.900955  	0.042008 
684.332613  	0.044516 
685.764271  	0.047171 
687.195929  	0.048877 
688.627587  	0.049050 
690.059246  	0.047819 
691.490904  	0.046620 
692.922562  	0.046130 
694.354220  	0.046968 
695.785878  	0.049326 
697.217537  	0.051651 
698.649195  	0.053152 
700.080853  	0.055173 
701.512511  	0.058309 
702.944169  	0.060985 
704.375827  	0.062316 
705.807486  	0.063429 
707.239144  	0.063849 
708.670802  	0.062554 
710.102460  	0.060803 
711.534118  	0.058488 
712.965777  	0.055445 
714.397435  	0.053650 
715.829093  	0.053037 
717.260751  	0.052281 
718.692409  	0.051510 
720.124067  	0.051342 
721.555726  	0.052347 
722.987384  	0.053974 
724.419042  	0.055370 
725.850700  	0.056789 
727.282358  	0.058061 
728.714017  	0.058746 
730.145675  	0.058839 
731.577333  	0.058381 
733.008991  	0.057900 
734.440649  	0.057124 
735.872308  	0.056018 
737.303966  	0.056099 
738.735624  	0.057066 
740.167282  	0.057932 
741.598940  	0.059460 
743.030598  	0.061526 
744.462257  	0.063950 
745.893915  	0.067147 
747.325573  	0.070455 
748.757231  	0.073962 
750.188889  	0.077693 
751.620548  	0.080949 
753.052206  	0.084382 
754.483864  	0.087910 
755.915522  	0.091046 
757.347180  	0.093878 
758.778839  	0.095131 
760.210497  	0.095110 
761.642155  	0.095510 
763.073813  	0.095973 
764.505471  	0.096352 
765.937129  	0.096829 
767.368788  	0.096518 
768.800446  	0.094946 
770.232104  	0.091414 
771.663762  	0.085750 
773.095420  	0.079479 
774.527079  	0.073401 
775.958737  	0.067191 
777.390395  	0.061513 
778.822053  	0.057441 
780.253711  	0.054826 
781.685369  	0.052904 
783.117028  	0.051173 
784.548686  	0.049594 
785.980344  	0.048561 
787.412002  	0.048238 
788.843660  	0.048217 
790.275319  	0.048380 
791.706977  	0.049099 
793.138635  	0.050354 
794.570293  	0.052008 
796.001951  	0.054197 
797.433610  	0.057132 
798.865268  	0.061183 
800.296926  	0.066350 
801.728584  	0.072733 
803.160242  	0.080891 
804.591900  	0.089801 
806.023559  	0.097966 
807.455217  	0.105536 
808.886875  	0.112804 
810.318533  	0.119828 
811.750191  	0.125399 
813.181850  	0.127846 
814.613508  	0.128102 
816.045166  	0.127166 
817.476824  	0.125471 
818.908482  	0.124631 
820.340141  	0.125479 
821.771799  	0.128165 
823.203457  	0.133116 
824.635115  	0.139759 
826.066773  	0.146248 
827.498431  	0.149876 
828.930090  	0.149266 
830.361748  	0.144970 
831.793406  	0.137429 
833.225064  	0.127758 
834.656722  	0.117112 
836.088381  	0.106253 
837.520039  	0.096474 
838.951697  	0.088381 
840.383355  	0.081650 
841.815013  	0.075988 
843.246671  	0.071172 
844.678330  	0.066518 
846.109988  	0.061182 
847.541646  	0.055233 
848.973304  	0.049192 
850.404962  	0.043135 
851.836621  	0.037243 
853.268279  	0.031925 
854.699937  	0.027475 
856.131595  	0.023693 
857.563253  	0.020493 
858.994912  	0.018623 
860.426570  	0.017861 
861.858228  	0.017134 
863.289886  	0.016798 
864.721544  	0.017437 
866.153202  	0.018595 
867.584861  	0.020277 
869.016519  	0.022766 
870.448177  	0.025622 
871.879835  	0.028571 
873.311493  	0.031760 
874.743152  	0.035304 
876.174810  	0.039527 
877.606468  	0.044384 
879.038126  	0.049297 
880.469784  	0.054059 
881.901443  	0.058745 
883.333101  	0.063190 
884.764759  	0.066607 
886.196417  	0.068180 
887.628075  	0.067544 
889.059733  	0.063905 
890.491392  	0.057037 
891.923050  	0.047745 
893.354708  	0.037377 
894.786366  	0.028351 
896.218024  	0.022171 
897.649683  	0.018373 
899.081341  	0.016392 
900.512999  	0.015886 
901.944657  	0.015790 
903.376315  	0.015602 
904.807973  	0.016086 
906.239632  	0.017315 
907.671290  	0.018390 
909.102948  	0.019282 
910.534606  	0.020548 
911.966264  	0.022122 
913.397923  	0.023861 
914.829581  	0.025514 
916.261239  	0.026426 
917.692897  	0.026862 
919.124555  	0.027463 
920.556214  	0.027845 
921.987872  	0.027594 
923.419530  	0.026644 
924.851188  	0.025348 
926.282846  	0.024823 
927.714504  	0.025321 
929.146163  	0.026242 
930.577821  	0.027763 
932.009479  	0.029819 
933.441137  	0.031610 
934.872795  	0.032748 
936.304454  	0.033227 
937.736112  	0.033477 
939.167770  	0.033950 
940.599428  	0.034414 
942.031086  	0.034838 
943.462744  	0.035524 
944.894403  	0.035995 
946.326061  	0.035540 
947.757719  	0.034515 
949.189377  	0.033777 
950.621035  	0.033534 
952.052694  	0.033900 
953.484352  	0.035145 
954.916010  	0.036887 
956.347668  	0.038541 
957.779326  	0.039925 
959.210985  	0.040727 
960.642643  	0.040865 
962.074301  	0.040800 
963.505959  	0.040833 
964.937617  	0.040987 
966.369275  	0.041317 
967.800934  	0.041770 
969.232592  	0.042214 
970.664250  	0.042853 
972.095908  	0.043836 
973.527566  	0.044914 
974.959225  	0.046206 
976.390883  	0.047812 
977.822541  	0.049428 
979.254199  	0.051299 
980.685857  	0.053542 
982.117516  	0.055969 
983.549174  	0.058988 
984.980832  	0.062394 
986.412490  	0.066078 
987.844148  	0.070851 
989.275806  	0.076111 
990.707465  	0.081023 
992.139123  	0.085448 
993.570781  	0.088396 
995.002439  	0.090525 
996.434097  	0.093365 
997.865756  	0.097286 
999.297414  	0.103988 
1000.729072  	0.114264 
1002.160730  	0.126425 
1003.592388  	0.138481 
1005.024046  	0.146840 
1006.455705  	0.150238 
1007.887363  	0.151999 
1009.319021  	0.155522 
1010.750679  	0.165856 
1012.182337  	0.183854 
1013.613996  	0.195369 
1015.045654  	0.182963 
1016.477312  	0.148430 
1017.908970  	0.109498 
1019.340628  	0.077890 
1020.772287  	0.055549 
1022.203945  	0.040821 
1023.635603  	0.030355 
1025.067261  	0.022702 
1026.498919  	0.018558 
1027.930577  	0.017227 
1029.362236  	0.017219 
1030.793894  	0.018021 
1032.225552  	0.019316 
1033.657210  	0.020983 
1035.088868  	0.023092 
1036.520527  	0.025130 
1037.952185  	0.026764 
1039.383843  	0.028311 
1040.815501  	0.030118 
1042.247159  	0.031960 
1043.678818  	0.033433 
1045.110476  	0.035098 
1046.542134  	0.037119 
1047.973792  	0.038979 
1049.405450  	0.041110 
1050.837108  	0.043123 
1052.268767  	0.044454 
1053.700425  	0.046245 
1055.132083  	0.048293 
1056.563741  	0.049968 
1057.995399  	0.052208 
1059.427058  	0.054866 
1060.858716  	0.057517 
1062.290374  	0.060264 
1063.722032  	0.063022 
1065.153690  	0.066558 
1066.585348  	0.070767 
1068.017007  	0.075204 
1069.448665  	0.080700 
1070.880323  	0.087170 
1072.311981  	0.095215 
1073.743639  	0.106131 
1075.175298  	0.120373 
1076.606956  	0.139283 
1078.038614  	0.158414 
1079.470272  	0.166749 
1080.901930  	0.159936 
1082.333589  	0.141319 
1083.765247  	0.117912 
1085.196905  	0.095840 
1086.628563  	0.078629 
1088.060221  	0.068363 
1089.491879  	0.064349 
1090.923538  	0.064740 
1092.355196  	0.068469 
1093.786854  	0.074027 
1095.218512  	0.080663 
1096.650170  	0.088802 
1098.081829  	0.097221 
1099.513487  	0.104829 
1100.945145  	0.110374 
1102.376803  	0.111898 
1103.808461  	0.110631 
1105.240120  	0.108741 
1106.671778  	0.107768 
1108.103436  	0.108342 
1109.535094  	0.108537 
1110.966752  	0.107211 
1112.398410  	0.105062 
1113.830069  	0.102986 
1115.261727  	0.101943 
1116.693385  	0.101483 
1118.125043  	0.101598 
1119.556701  	0.103320 
1120.988360  	0.105941 
1122.420018  	0.108951 
1123.851676  	0.112671 
1125.283334  	0.116969 
1126.714992  	0.122102 
1128.146650  	0.127183 
1129.578309  	0.132078 
1131.009967  	0.138196 
1132.441625  	0.144561 
1133.873283  	0.150842 
1135.304941  	0.157594 
1136.736600  	0.164140 
1138.168258  	0.171806 
1139.599916  	0.180229 
1141.031574  	0.187983 
1142.463232  	0.196523 
1143.894891  	0.205019 
1145.326549  	0.213323 
1146.758207  	0.222315 
1148.189865  	0.230080 
1149.621523  	0.238288 
1151.053181  	0.247102 
1152.484840  	0.253964 
1153.916498  	0.260961 
1155.348156  	0.266569 
1156.779814  	0.268991 
1158.211472  	0.269875 
1159.643131  	0.266325 
1161.074789  	0.258220 
1162.506447  	0.246687 
1163.938105  	0.230718 
1165.369763  	0.212314 
1166.801421  	0.191806 
1168.233080  	0.171533 
1169.664738  	0.156484 
1171.096396  	0.148677 
1172.528054  	0.150151 
1173.959712  	0.161037 
1175.391371  	0.176797 
1176.823029  	0.193388 
1178.254687  	0.207655 
1179.686345  	0.218954 
1181.118003  	0.230678 
1182.549662  	0.241761 
1183.981320  	0.250694 
1185.412978  	0.256844 
1186.844636  	0.256829 
1188.276294  	0.253012 
1189.707952  	0.246932 
1191.139611  	0.237374 
1192.571269  	0.227192 
1194.002927  	0.215973 
1195.434585  	0.203248 
1196.866243  	0.190787 
1198.297902  	0.177665 
1199.729560  	0.164613 
1201.161218  	0.152271 
1202.592876  	0.140260 
1204.024534  	0.130751 
1205.456193  	0.125655 
1206.887851  	0.126910 
1208.319509  	0.135899 
1209.751167  	0.150173 
1211.182825  	0.167035 
1212.614483  	0.183921 
1214.046142  	0.196777 
1215.477800  	0.205593 
1216.909458  	0.210381 
1218.341116  	0.211226 
1219.772774  	0.210812 
1221.204433  	0.208323 
1222.636091  	0.204352 
1224.067749  	0.200225 
1225.499407  	0.194638 
1226.931065  	0.189291 
1228.362723  	0.184230 
1229.794382  	0.178269 
1231.226040  	0.172944 
1232.657698  	0.167438 
1234.089356  	0.161855 
1235.521014  	0.157175 
1236.952673  	0.151919 
1238.384331  	0.146859 
1239.815989  	0.142222 
1241.247647  	0.137111 
1242.679305  	0.132652 
1244.110964  	0.127796 
1245.542622  	0.121998 
1246.974280  	0.116375 
1248.405938  	0.109852 
1249.837596  	0.102583 
1251.269254  	0.094878 
1252.700913  	0.086030 
1254.132571  	0.076907 
1255.564229  	0.067266 
1256.995887  	0.056988 
1258.427545  	0.047202 
1259.859204  	0.037567 
1261.290862  	0.028139 
1262.722520  	0.019684 
1264.154178  	0.012158 
1265.585836  	0.005753 
1267.017495  	0.000677 
1268.449153  	-0.003403 
1269.880811  	-0.006684 
1271.312469  	-0.009181 
1272.744127  	-0.010913 
1274.175785  	-0.011809 
1275.607444  	-0.012189 
1277.039102  	-0.012309 
1278.470760  	-0.011710 
1279.902418  	-0.010506 
1281.334076  	-0.009290 
1282.765735  	-0.007870 
1284.197393  	-0.006055 
1285.629051  	-0.004203 
1287.060709  	-0.002588 
1288.492367  	-0.001187 
1289.924025  	-0.000034 
1291.355684  	0.000509 
1292.787342  	0.000102 
1294.219000  	-0.001237 
1295.650658  	-0.003245 
1297.082316  	-0.005769 
1298.513975  	-0.008571 
1299.945633  	-0.011260 
1301.377291  	-0.013509 
1302.808949  	-0.015220 
1304.240607  	-0.016353 
1305.672266  	-0.016537 
1307.103924  	-0.015959 
1308.535582  	-0.015271 
1309.967240  	-0.015021 
1311.398898  	-0.015926 
1312.830556  	-0.018136 
1314.262215  	-0.020894 
1315.693873  	-0.023475 
1317.125531  	-0.025283 
1318.557189  	-0.026311 
1319.988847  	-0.027265 
1321.420506  	-0.027911 
1322.852164  	-0.028117 
1324.283822  	-0.028215 
1325.715480  	-0.028209 
1327.147138  	-0.028362 
1328.578796  	-0.028492 
1330.010455  	-0.028407 
1331.442113  	-0.028537 
1332.873771  	-0.028627 
1334.305429  	-0.028534 
1335.737087  	-0.028417 
1337.168746  	-0.028001 
1338.600404  	-0.027666 
1340.032062  	-0.027678 
1341.463720  	-0.027707 
1342.895378  	-0.027853 
1344.327037  	-0.027941 
1345.758695  	-0.027852 
1347.190353  	-0.027588 
1348.622011  	-0.027045 
1350.053669  	-0.026851 
1351.485327  	-0.026899 
1352.916986  	-0.026559 
1354.348644  	-0.026032 
1355.780302  	-0.025066 
1357.211960  	-0.023715 
1358.643618  	-0.021615 
1360.075277  	-0.017118 
1361.506935  	-0.010302 
1362.938593  	-0.003106 
1364.370251  	-0.000163 
1365.801909  	-0.002689 
1367.233568  	-0.008391 
1368.665226  	-0.014855 
1370.096884  	-0.019680 
1371.528542  	-0.022284 
1372.960200  	-0.023310 
1374.391858  	-0.024066 
1375.823517  	-0.024396 
1377.255175  	-0.024015 
1378.686833  	-0.023402 
1380.118491  	-0.022272 
1381.550149  	-0.020398 
1382.981808  	-0.017329 
1384.413466  	-0.013657 
1385.845124  	-0.010874 
1387.276782  	-0.010700 
1388.708440  	-0.013199 
1390.140098  	-0.015856 
1391.571757  	-0.018401 
1393.003415  	-0.019910 
1394.435073  	-0.020349 
1395.866731  	-0.020626 
1397.298389  	-0.019990 
1398.730048  	-0.018621 
1400.161706  	-0.017484 
1401.593364  	-0.015588 
1403.025022  	-0.012532 
1404.456680  	-0.009129 
1405.888339  	-0.005376 
1407.319997  	-0.001898 
1408.751655  	0.000004 
1410.183313  	0.000255 
1411.614971  	-0.001954 
1413.046629  	-0.006017 
1414.478288  	-0.010228 
1415.909946  	-0.014583 
1417.341604  	-0.017842 
1418.773262  	-0.019920 
1420.204920  	-0.022642 
1421.636579  	-0.023686 
1423.068237  	-0.023741 
1424.499895  	-0.024489 
1425.931553  	-0.024829 
1427.363211  	-0.024571 
1428.794870  	-0.024338 
1430.226528  	-0.024083 
1431.658186  	-0.024363 
1433.089844  	-0.024255 
1434.521502  	-0.023318 
1435.953160  	-0.022722 
1437.384819  	-0.022456 
1438.816477  	-0.021851 
1440.248135  	-0.020851 
1441.679793  	-0.019328 
1443.111451  	-0.018222 
1444.543110  	-0.017251 
1445.974768  	-0.015933 
1447.406426  	-0.014868 
1448.838084  	-0.013796 
1450.269742  	-0.012879 
1451.701400  	-0.012474 
1453.133059  	-0.012250 
1454.564717  	-0.011721 
1455.996375  	-0.010418 
1457.428033  	-0.008500 
1458.859691  	-0.006985 
1460.291350  	-0.004596 
1461.723008  	-0.002397 
1463.154666  	-0.000611 
1464.586324  	0.000527 
1466.017982  	-0.000574 
1467.449641  	-0.001482 
1468.881299  	-0.002262 
1470.312957  	-0.003067 
1471.744615  	-0.002882 
1473.176273  	-0.004105 
1474.607931  	-0.005055 
1476.039590  	-0.004205 
1477.471248  	-0.004463 
1478.902906  	-0.004027 
1480.334564  	-0.002109 
1481.766222  	-0.000665 
1483.197881  	0.001672 
1484.629539  	0.005249 
1486.061197  	0.009143 
1487.492855  	0.015018 
1488.924513  	0.021591 
1490.356172  	0.028684 
1491.787830  	0.038386 
1493.219488  	0.046790 
1494.651146  	0.055978 
1496.082804  	0.068595 
1497.514462  	0.079741 
1498.946121  	0.090451 
1500.377779  	0.100288 
1501.809437  	0.104165 
1503.241095  	0.105824 
1504.672753  	0.105055 
1506.104412  	0.097145 
1507.536070  	0.080401 
1508.967728  	0.062993 
1510.399386  	0.046796 
1511.831044  	0.030831 
1513.262702  	0.015560 
1514.694361  	0.004948 
1516.126019  	-0.001988 
1517.557677  	-0.010171 
1518.989335  	-0.015105 
1520.420993  	-0.016274 
1521.852652  	-0.019905 
1523.284310  	-0.022818 
1524.715968  	-0.023154 
1526.147626  	-0.024849 
1527.579284  	-0.026005 
1529.010943  	-0.026423 
1530.442601  	-0.027311 
1531.874259  	-0.027002 
1533.305917  	-0.026950 
1534.737575  	-0.028613 
1536.169233  	-0.028557 
1537.600892  	-0.028023 
1539.032550  	-0.027522 
1540.464208  	-0.027589 
1541.895866  	-0.029155 
1543.327524  	-0.029309 
1544.759183  	-0.029437 
1546.190841  	-0.030331 
1547.622499  	-0.029895 
1549.054157  	-0.029284 
1550.485815  	-0.029714 
1551.917473  	-0.029703 
1553.349132  	-0.029362 
1554.780790  	-0.029450 
1556.212448  	-0.029085 
1557.644106  	-0.027798 
1559.075764  	-0.027015 
1560.507423  	-0.030209 
1561.939081  	-0.030277 
1563.370739  	-0.029628 
1564.802397  	-0.029730 
1566.234055  	-0.030049 
1567.665714  	-0.029573 
1569.097372  	-0.029206 
1570.529030  	-0.029697 
1571.960688  	-0.029887 
1573.392346  	-0.029410 
1574.824004  	-0.028605 
1576.255663  	-0.028463 
1577.687321  	-0.028986 
1579.118979  	-0.028774 
1580.550637  	-0.028415 
1581.982295  	-0.027868 
1583.413954  	-0.026787 
1584.845612  	-0.025500 
1586.277270  	-0.024115 
1587.708928  	-0.022308 
1589.140586  	-0.020227 
1590.572245  	-0.018593 
1592.003903  	-0.017425 
1593.435561  	-0.016835 
1594.867219  	-0.016929 
1596.298877  	-0.017253 
1597.730535  	-0.017593 
1599.162194  	-0.017396 
1600.593852  	-0.016779 
1602.025510  	-0.016549 
1603.457168  	-0.016737 
1604.888826  	-0.017463 
1606.320485  	-0.018659 
1607.752143  	-0.020254 
1609.183801  	-0.022301 
1610.615459  	-0.024080 
1612.047117  	-0.025641 
1613.478775  	-0.026555 
1614.910434  	-0.026505 
1616.342092  	-0.026651 
1617.773750  	-0.027792 
1619.205408  	-0.028325 
1620.637066  	-0.028222 
1622.068725  	-0.027813 
1623.500383  	-0.027944 
1624.932041  	-0.028542 
1626.363699  	-0.028444 
1627.795357  	-0.028384 
1629.227016  	-0.028557 
1630.658674  	-0.028212 
1632.090332  	-0.027711 
1633.521990  	-0.026940 
1634.953648  	-0.025674 
1636.385306  	-0.025741 
1637.816965  	-0.026395 
1639.248623  	-0.026164 
1640.680281  	-0.026337 
1642.111939  	-0.026486 
1643.543597  	-0.025946 
1644.975256  	-0.025271 
1646.406914  	-0.024899 
1647.838572  	-0.025787 
1649.270230  	-0.026444 
1650.701888  	-0.025724 
1652.133547  	-0.024314 
1653.565205  	-0.024883 
1654.996863  	-0.026724 
1656.428521  	-0.026646 
1657.860179  	-0.026494 
1659.291837  	-0.026541 
1660.723496  	-0.026312 
1662.155154  	-0.025975 
1663.586812  	-0.026562 
1665.018470  	-0.026980 
1666.450128  	-0.026559 
1667.881787  	-0.026013 
1669.313445  	-0.025870 
1670.745103  	-0.026706 
1672.176761  	-0.027194 
1673.608419  	-0.026440 
1675.040077  	-0.026120 
1676.471736  	-0.027219 
1677.903394  	-0.026941 
1679.335052  	-0.026245 
1680.766710  	-0.026190 
1682.198368  	-0.025612 
1683.630027  	-0.024589 
1685.061685  	-0.026182 
1686.493343  	-0.026652 
1687.925001  	-0.025945 
1689.356659  	-0.025719 
1690.788318  	-0.025813 
1692.219976  	-0.025464 
1693.651634  	-0.024482 
1695.083292  	-0.023154 
1696.514950  	-0.023586 
1697.946608  	-0.023673 
1699.378267  	-0.021873 
1700.809925  	-0.022189 
1702.241583  	-0.023099 
1703.673241  	-0.021378 
1705.104899  	-0.020504 
1706.536558  	-0.020778 
1707.968216  	-0.019835 
1709.399874  	-0.019224 
1710.831532  	-0.018750 
1712.263190  	-0.017767 
1713.694849  	-0.016920 
1715.126507  	-0.015565 
1716.558165  	-0.014299 
1717.989823  	-0.014310 
1719.421481  	-0.014226 
1720.853139  	-0.013666 
1722.284798  	-0.012493 
1723.716456  	-0.011151 
1725.148114  	-0.010542 
1726.579772  	-0.009291 
1728.011430  	-0.007780 
1729.443089  	-0.006824 
1730.874747  	-0.005454 
1732.306405  	-0.004098 
1733.738063  	-0.002741 
1735.169721  	-0.002291 
1736.601379  	-0.001931 
1738.033038  	0.000122 
1739.464696  	0.001967 
1740.896354  	0.002699 
1742.328012  	0.005112 
1743.759670  	0.007329 
1745.191329  	0.009727 
1746.622987  	0.013754 
1748.054645  	0.017148 
1749.486303  	0.021425 
1750.917961  	0.027230 
1752.349620  	0.032719 
1753.781278  	0.040413 
1755.212936  	0.048703 
1756.644594  	0.057872 
1758.076252  	0.070835 
1759.507910  	0.082955 
1760.939569  	0.095034 
1762.371227  	0.109948 
1763.802885  	0.120437 
1765.234543  	0.127577 
1766.666201  	0.134231 
1768.097860  	0.135506 
1769.529518  	0.134023 
1770.961176  	0.132579 
1772.392834  	0.125328 
1773.824492  	0.118013 
1775.256150  	0.112275 
1776.687809  	0.103378 
1778.119467  	0.095741 
1779.551125  	0.088236 
1780.982783  	0.078107 
1782.414441  	0.070020 
1783.846100  	0.061783 
1785.277758  	0.052034 
1786.709416  	0.044018 
1788.141074  	0.035520 
1789.572732  	0.027856 
1791.004391  	0.021593 
1792.436049  	0.011830 
1793.867707  	0.003801 
1795.299365  	-0.001326 
1796.731023  	-0.007317 
1798.162681  	-0.011241 
1799.594340  	-0.014854 
1801.025998  	-0.018968 
1802.457656  	-0.020987 
1803.889314  	-0.023582 
1805.320972  	-0.025451 
1806.752631  	-0.026345 
1808.184289  	-0.028296 
1809.615947  	-0.028771 
1811.047605  	-0.029106 
1812.479263  	-0.030681 
1813.910922  	-0.030896 
1815.342580  	-0.031492 
1816.774238  	-0.032246 
1818.205896  	-0.032156 
1819.637554  	-0.032877 
1821.069212  	-0.032992 
1822.500871  	-0.032881 
1823.932529  	-0.033240 
1825.364187  	-0.032828 
1826.795845  	-0.033516 
1828.227503  	-0.033925 
1829.659162  	-0.033128 
1831.090820  	-0.033778 
1832.522478  	-0.033903 
1833.954136  	-0.033775 
1835.385794  	-0.034446 
1836.817452  	-0.034011 
1838.249111  	-0.034008 
1839.680769  	-0.034311 
1841.112427  	-0.033464 
1842.544085  	-0.033592 
1843.975743  	-0.034151 
1845.407402  	-0.034293 
1846.839060  	-0.034742 
1848.270718  	-0.034284 
1849.702376  	-0.034266 
1851.134034  	-0.034328 
1852.565693  	-0.033551 
1853.997351  	-0.034194 
1855.429009  	-0.034591 
1856.860667  	-0.033890 
1858.292325  	-0.033999 
1859.723983  	-0.033575 
1861.155642  	-0.033751 
1862.587300  	-0.034878 
1864.018958  	-0.034439 
1865.450616  	-0.034007 
1866.882274  	-0.033481 
1868.313933  	-0.032530 
1869.745591  	-0.033732 
1871.177249  	-0.034019 
1872.608907  	-0.033588 
1874.040565  	-0.034249 
1875.472224  	-0.033623 
1876.903882  	-0.032983 
1878.335540  	-0.033498 
1879.767198  	-0.033525 
1881.198856  	-0.033871 
1882.630514  	-0.033738 
1884.062173  	-0.033014 
1885.493831  	-0.033071 
1886.925489  	-0.032475 
1888.357147  	-0.032002 
1889.788805  	-0.032500 
1891.220464  	-0.032295 
1892.652122  	-0.031956 
1894.083780  	-0.031390 
1895.515438  	-0.031068 
1896.947096  	-0.031673 
1898.378754  	-0.031469 
1899.810413  	-0.031407 
1901.242071  	-0.031641 
1902.673729  	-0.031073 
1904.105387  	-0.031707 
1905.537045  	-0.032479 
1906.968704  	-0.032145 
1908.400362  	-0.032394 
1909.832020  	-0.032313 
1911.263678  	-0.032667 
1912.695336  	-0.033806 
1914.126995  	-0.033685 
1915.558653  	-0.033950 
1916.990311  	-0.034548 
1918.421969  	-0.034401 
1919.853627  	-0.035089 
1921.285285  	-0.034621 
1922.716944  	-0.033584 
1924.148602  	-0.034140 
1925.580260  	-0.033623 
1927.011918  	-0.033051 
1928.443576  	-0.033639 
1929.875235  	-0.033974 
1931.306893  	-0.034670 
1932.738551  	-0.034162 
1934.170209  	-0.033420 
1935.601867  	-0.034960 
1937.033525  	-0.035327 
1938.465184  	-0.034677 
1939.896842  	-0.034640 
1941.328500  	-0.033656 
1942.760158  	-0.033723 
1944.191816  	-0.034144 
1945.623475  	-0.033477 
1947.055133  	-0.033652 
1948.486791  	-0.033186 
1949.918449  	-0.032930 
1951.350107  	-0.033469 
1952.781766  	-0.032733 
1954.213424  	-0.032914 
1955.645082  	-0.032943 
1957.076740  	-0.032534 
1958.508398  	-0.034444 
1959.940056  	-0.033174 
1961.371715  	-0.029882 
1962.803373  	-0.030821 
1964.235031  	-0.031115 
1965.666689  	-0.030217 
1967.098347  	-0.030902 
1968.530006  	-0.031327 
1969.961664  	-0.031808 
1971.393322  	-0.031346 
1972.824980  	-0.031870 
1974.256638  	-0.033621 
1975.688297  	-0.030540 
1977.119955  	-0.027878 
1978.551613  	-0.029897 
1979.983271  	-0.031494 
1981.414929  	-0.032676 
1982.846587  	-0.032458 
1984.278246  	-0.031561 
1985.709904  	-0.032438 
1987.141562  	-0.032531 
1988.573220  	-0.033297 
1990.004878  	-0.034037 
1991.436537  	-0.031783 
1992.868195  	-0.032013 
1994.299853  	-0.033954 
1995.731511  	-0.033402 
1997.163169  	-0.032554 
1998.594827  	-0.031350 
2000.026486  	-0.031415 
2001.458144  	-0.031912 
2002.889802  	-0.029468 
2004.321460  	-0.029538 
2005.753118  	-0.032418 
2007.184777  	-0.032671 
2008.616435  	-0.032006 
2010.048093  	-0.030518 
2011.479751  	-0.030608 
2012.911409  	-0.033429 
2014.343068  	-0.033655 
2015.774726  	-0.032761 
2017.206384  	-0.031134 
2018.638042  	-0.028485 
2020.069700  	-0.029838 
2021.501358  	-0.031527 
2022.933017  	-0.032256 
2024.364675  	-0.034094 
2025.796333  	-0.032289 
2027.227991  	-0.030974 
2028.659649  	-0.031719 
2030.091308  	-0.029274 
2031.522966  	-0.028781 
2032.954624  	-0.030125 
2034.386282  	-0.030510 
2035.817940  	-0.032537 
2037.249599  	-0.032123 
2038.681257  	-0.030689 
2040.112915  	-0.031651 
2041.544573  	-0.031012 
2042.976231  	-0.030774 
2044.407889  	-0.031597 
2045.839548  	-0.031108 
2047.271206  	-0.031851 
2048.702864  	-0.032906 
2050.134522  	-0.033116 
2051.566180  	-0.033311 
2052.997839  	-0.032447 
2054.429497  	-0.032327 
2055.861155  	-0.032822 
2057.292813  	-0.032755 
2058.724471  	-0.034142 
2060.156129  	-0.035065 
2061.587788  	-0.034155 
2063.019446  	-0.034371 
2064.451104  	-0.035471 
2065.882762  	-0.035717 
2067.314420  	-0.034992 
2068.746079  	-0.034631 
2070.177737  	-0.034890 
2071.609395  	-0.034160 
2073.041053  	-0.034578 
2074.472711  	-0.035825 
2075.904370  	-0.034495 
2077.336028  	-0.034003 
2078.767686  	-0.035230 
2080.199344  	-0.035106 
2081.631002  	-0.035498 
2083.062660  	-0.035937 
2084.494319  	-0.035249 
2085.925977  	-0.035038 
2087.357635  	-0.034457 
2088.789293  	-0.034446 
2090.220951  	-0.035207 
2091.652610  	-0.034716 
2093.084268  	-0.035212 
2094.515926  	-0.036439 
2095.947584  	-0.036432 
2097.379242  	-0.036990 
2098.810901  	-0.036748 
2100.242559  	-0.035563 
2101.674217  	-0.035543 
2103.105875  	-0.035481 
2104.537533  	-0.036177 
2105.969191  	-0.037151 
2107.400850  	-0.036315 
2108.832508  	-0.036084 
2110.264166  	-0.036350 
2111.695824  	-0.035714 
2113.127482  	-0.035493 
2114.559141  	-0.035328 
2115.990799  	-0.035738 
2117.422457  	-0.036395 
2118.854115  	-0.035933 
2120.285773  	-0.036293 
2121.717431  	-0.036591 
2123.149090  	-0.035827 
2124.580748  	-0.036514 
2126.012406  	-0.036754 
2127.444064  	-0.035796 
2128.875722  	-0.035998 
2130.307381  	-0.035851 
2131.739039  	-0.035401 
2133.170697  	-0.035164 
2134.602355  	-0.034197 
2136.034013  	-0.034648 
2137.465672  	-0.035025 
2138.897330  	-0.033409 
2140.328988  	-0.032895 
2141.760646  	-0.033299 
2143.192304  	-0.033135 
2144.623962  	-0.032972 
2146.055621  	-0.033578 
2147.487279  	-0.034995 
2148.918937  	-0.033877 
2150.350595  	-0.030723 
2151.782253  	-0.029348 
2153.213912  	-0.029381 
2154.645570  	-0.031581 
2156.077228  	-0.033857 
2157.508886  	-0.032453 
2158.940544  	-0.030991 
2160.372202  	-0.029642 
2161.803861  	-0.030063 
2163.235519  	-0.033624 
2164.667177  	-0.033910 
2166.098835  	-0.033409 
2167.530493  	-0.034922 
2168.962152  	-0.034187 
2170.393810  	-0.034002 
2171.825468  	-0.034188 
2173.257126  	-0.032949 
2174.688784  	-0.033313 
2176.120443  	-0.032670 
2177.552101  	-0.031872 
2178.983759  	-0.033770 
2180.415417  	-0.034164 
2181.847075  	-0.034631 
2183.278733  	-0.035445 
2184.710392  	-0.032852 
2186.142050  	-0.031529 
2187.573708  	-0.031610 
2189.005366  	-0.030568 
2190.437024  	-0.031475 
2191.868683  	-0.032547 
2193.300341  	-0.032026 
2194.731999  	-0.032166 
2196.163657  	-0.032667 
2197.595315  	-0.033653 
2199.026974  	-0.034170 
2200.458632  	-0.033204 
2201.890290  	-0.033306 
2203.321948  	-0.034059 
2204.753606  	-0.033905 
2206.185264  	-0.033981 
2207.616923  	-0.034456 
2209.048581  	-0.034320 
2210.480239  	-0.033474 
2211.911897  	-0.034059 
2213.343555  	-0.035867 
2214.775214  	-0.035666 
2216.206872  	-0.034689 
2217.638530  	-0.034360 
2219.070188  	-0.033515 
2220.501846  	-0.033268 
2221.933504  	-0.033301 
2223.365163  	-0.033464 
2224.796821  	-0.034294 
2226.228479  	-0.033367 
2227.660137  	-0.032535 
2229.091795  	-0.033949 
2230.523454  	-0.034064 
2231.955112  	-0.033435 
2233.386770  	-0.033969 
2234.818428  	-0.034070 
2236.250086  	-0.034298 
2237.681745  	-0.034522 
2239.113403  	-0.033663 
2240.545061  	-0.032999 
2241.976719  	-0.033426 
2243.408377  	-0.034470 
2244.840035  	-0.034795 
2246.271694  	-0.034869 
2247.703352  	-0.035752 
2249.135010  	-0.035326 
2250.566668  	-0.034581 
2251.998326  	-0.035609 
2253.429985  	-0.035684 
2254.861643  	-0.035059 
2256.293301  	-0.035119 
2257.724959  	-0.034367 
2259.156617  	-0.034508 
2260.588276  	-0.035752 
2262.019934  	-0.035736 
2263.451592  	-0.035650 
2264.883250  	-0.036092 
2266.314908  	-0.036487 
2267.746566  	-0.037051 
2269.178225  	-0.036998 
2270.609883  	-0.036544 
2272.041541  	-0.036132 
2273.473199  	-0.036042 
2274.904857  	-0.037108 
2276.336516  	-0.037821 
2277.768174  	-0.037505 
2279.199832  	-0.037643 
2280.631490  	-0.037616 
2282.063148  	-0.037170 
2283.494806  	-0.037230 
2284.926465  	-0.037495 
2286.358123  	-0.037573 
2287.789781  	-0.037282 
2289.221439  	-0.037125 
2290.653097  	-0.037365 
2292.084756  	-0.036950 
2293.516414  	-0.036376 
2294.948072  	-0.036459 
2296.379730  	-0.036360 
2297.811388  	-0.036206 
2299.243047  	-0.036244 
2300.674705  	-0.035724 
2302.106363  	-0.034923 
2303.538021  	-0.034696 
2304.969679  	-0.034912 
2306.401337  	-0.034302 
2307.832996  	-0.032818 
2309.264654  	-0.032150 
2310.696312  	-0.032035 
2312.127970  	-0.031454 
2313.559628  	-0.031063 
2314.991287  	-0.030845 
2316.422945  	-0.030429 
2317.854603  	-0.029661 
2319.286261  	-0.028091 
2320.717919  	-0.026658 
2322.149577  	-0.026147 
2323.581236  	-0.026072 
2325.012894  	-0.026106 
2326.444552  	-0.025576 
2327.876210  	-0.024446 
2329.307868  	-0.023539 
2330.739527  	-0.022977 
2332.171185  	-0.022917 
2333.602843  	-0.023311 
2335.034501  	-0.023464 
2336.466159  	-0.023298 
2337.897818  	-0.022955 
2339.329476  	-0.022682 
2340.761134  	-0.022396 
2342.192792  	-0.021765 
2343.624450  	-0.021556 
2345.056108  	-0.022245 
2346.487767  	-0.024491 
2347.919425  	-0.027780 
2349.351083  	-0.028691 
2350.782741  	-0.026172 
2352.214399  	-0.022982 
2353.646058  	-0.021150 
2355.077716  	-0.019479 
2356.509374  	-0.018041 
2357.941032  	-0.017064 
2359.372690  	-0.016341 
2360.804349  	-0.016403 
2362.236007  	-0.016780 
2363.667665  	-0.017368 
2365.099323  	-0.018214 
2366.530981  	-0.018954 
2367.962639  	-0.020107 
2369.394298  	-0.021732 
2370.825956  	-0.023529 
2372.257614  	-0.025245 
2373.689272  	-0.026607 
2375.120930  	-0.028122 
2376.552589  	-0.029640 
2377.984247  	-0.031026 
2379.415905  	-0.032797 
2380.847563  	-0.034377 
2382.279221  	-0.035568 
2383.710879  	-0.036723 
2385.142538  	-0.037401 
2386.574196  	-0.037857 
2388.005854  	-0.038257 
2389.437512  	-0.038082 
2390.869170  	-0.037969 
2392.300829  	-0.038232 
2393.732487  	-0.038249 
2395.164145  	-0.038319 
2396.595803  	-0.038613 
2398.027461  	-0.038530 
2399.459120  	-0.038206 
2400.890778  	-0.038198 
2402.322436  	-0.038148 
2403.754094  	-0.037713 
2405.185752  	-0.037668 
2406.617410  	-0.038067 
2408.049069  	-0.038072 
2409.480727  	-0.037933 
2410.912385  	-0.037915 
2412.344043  	-0.037902 
2413.775701  	-0.038027 
2415.207360  	-0.037836 
2416.639018  	-0.037592 
2418.070676  	-0.037999 
2419.502334  	-0.038176 
2420.933992  	-0.037851 
2422.365651  	-0.037885 
2423.797309  	-0.038155 
2425.228967  	-0.038314 
2426.660625  	-0.038450 
2428.092283  	-0.038683 
2429.523941  	-0.038770 
2430.955600  	-0.038374 
2432.387258  	-0.038283 
2433.818916  	-0.038778 
2435.250574  	-0.038815 
2436.682232  	-0.038432 
2438.113891  	-0.038220 
2439.545549  	-0.038331 
2440.977207  	-0.038734 
2442.408865  	-0.038790 
2443.840523  	-0.038567 
2445.272181  	-0.038594 
2446.703840  	-0.038507 
2448.135498  	-0.038463 
2449.567156  	-0.038713 
2450.998814  	-0.038841 
2452.430472  	-0.038948 
2453.862131  	-0.038989 
2455.293789  	-0.038787 
2456.725447  	-0.038697 
2458.157105  	-0.038756 
2459.588763  	-0.038779 
2461.020422  	-0.038647 
2462.452080  	-0.038564 
2463.883738  	-0.038934 
2465.315396  	-0.039136 
2466.747054  	-0.038734 
2468.178712  	-0.038496 
2469.610371  	-0.038629 
2471.042029  	-0.038792 
2472.473687  	-0.038956 
2473.905345  	-0.039102 
2475.337003  	-0.039075 
2476.768662  	-0.038788 
2478.200320  	-0.038696 
2479.631978  	-0.038881 
2481.063636  	-0.038771 
2482.495294  	-0.038703 
2483.926953  	-0.038962 
2485.358611  	-0.039121 
2486.790269  	-0.039306 
2488.221927  	-0.039467 
2489.653585  	-0.039485 
2491.085243  	-0.039579 
2492.516902  	-0.039406 
2493.948560  	-0.039078 
2495.380218  	-0.038988 
2496.811876  	-0.038987 
2498.243534  	-0.039342 
2499.675193  	-0.039808 
2501.106851  	-0.039795 
2502.538509  	-0.039747 
2503.970167  	-0.039685 
2505.401825  	-0.039328 
2506.833483  	-0.039214 
2508.265142  	-0.039515 
2509.696800  	-0.039714 
2511.128458  	-0.039584 
2512.560116  	-0.039660 
2513.991774  	-0.040088 
2515.423433  	-0.040102 
2516.855091  	-0.039762 
2518.286749  	-0.039641 
2519.718407  	-0.039849 
2521.150065  	-0.040438 
2522.581724  	-0.040685 
2524.013382  	-0.040313 
2525.445040  	-0.040188 
2526.876698  	-0.040328 
2528.308356  	-0.040509 
2529.740014  	-0.040384 
2531.171673  	-0.039678 
2532.603331  	-0.039691 
2534.034989  	-0.040233 
2535.466647  	-0.040083 
2536.898305  	-0.040257 
2538.329964  	-0.040555 
2539.761622  	-0.040124 
2541.193280  	-0.040190 
2542.624938  	-0.040403 
2544.056596  	-0.039904 
2545.488254  	-0.039750 
2546.919913  	-0.040169 
2548.351571  	-0.040566 
2549.783229  	-0.040591 
2551.214887  	-0.040428 
2552.646545  	-0.040830 
2554.078204  	-0.041318 
2555.509862  	-0.041154 
2556.941520  	-0.040670 
2558.373178  	-0.040314 
2559.804836  	-0.040733 
2561.236495  	-0.041401 
2562.668153  	-0.041184 
2564.099811  	-0.040882 
2565.531469  	-0.040900 
2566.963127  	-0.040592 
2568.394785  	-0.040370 
2569.826444  	-0.040618 
2571.258102  	-0.041088 
2572.689760  	-0.041148 
2574.121418  	-0.040541 
2575.553076  	-0.040327 
2576.984735  	-0.040706 
2578.416393  	-0.040987 
2579.848051  	-0.041283 
2581.279709  	-0.041301 
2582.711367  	-0.041078 
2584.143026  	-0.041346 
2585.574684  	-0.041553 
2587.006342  	-0.041149 
2588.438000  	-0.040682 
2589.869658  	-0.040597 
2591.301316  	-0.040803 
2592.732975  	-0.040859 
2594.164633  	-0.040840 
2595.596291  	-0.041062 
2597.027949  	-0.041214 
2598.459607  	-0.041364 
2599.891266  	-0.041767 
2601.322924  	-0.042041 
2602.754582  	-0.041897 
2604.186240  	-0.041465 
2605.617898  	-0.041201 
2607.049556  	-0.041190 
2608.481215  	-0.041072 
2609.912873  	-0.041105 
2611.344531  	-0.041369 
2612.776189  	-0.041437 
2614.207847  	-0.041466 
2615.639506  	-0.041652 
2617.071164  	-0.041773 
2618.502822  	-0.041541 
2619.934480  	-0.041109 
2621.366138  	-0.041201 
2622.797797  	-0.041668 
2624.229455  	-0.041887 
2625.661113  	-0.042027 
2627.092771  	-0.042062 
2628.524429  	-0.041948 
2629.956087  	-0.041861 
2631.387746  	-0.041658 
2632.819404  	-0.041676 
2634.251062  	-0.041940 
2635.682720  	-0.041998 
2637.114378  	-0.042084 
2638.546037  	-0.041986 
2639.977695  	-0.041670 
2641.409353  	-0.041925 
2642.841011  	-0.042226 
2644.272669  	-0.042021 
2645.704328  	-0.041969 
2647.135986  	-0.042031 
2648.567644  	-0.041955 
2649.999302  	-0.041938 
2651.430960  	-0.041984 
2652.862618  	-0.042102 
2654.294277  	-0.042145 
2655.725935  	-0.042122 
2657.157593  	-0.042205 
2658.589251  	-0.042125 
2660.020909  	-0.041899 
2661.452568  	-0.041727 
2662.884226  	-0.041616 
2664.315884  	-0.041806 
2665.747542  	-0.042026 
2667.179200  	-0.041884 
2668.610858  	-0.041746 
2670.042517  	-0.041760 
2671.474175  	-0.041802 
2672.905833  	-0.041809 
2674.337491  	-0.041742 
2675.769149  	-0.041866 
2677.200808  	-0.042036 
2678.632466  	-0.041970 
2680.064124  	-0.041932 
2681.495782  	-0.041793 
2682.927440  	-0.041506 
2684.359099  	-0.041508 
2685.790757  	-0.041661 
2687.222415  	-0.041763 
2688.654073  	-0.041897 
2690.085731  	-0.041979 
2691.517389  	-0.042000 
2692.949048  	-0.041972 
2694.380706  	-0.041958 
2695.812364  	-0.041923 
2697.244022  	-0.041777 
2698.675680  	-0.041854 
2700.107339  	-0.042015 
2701.538997  	-0.041849 
2702.970655  	-0.041720 
2704.402313  	-0.041714 
2705.833971  	-0.041676 
2707.265630  	-0.041740 
2708.697288  	-0.041712 
2710.128946  	-0.041658 
2711.560604  	-0.041650 
2712.992262  	-0.041466 
2714.423920  	-0.041496 
2715.855579  	-0.041667 
2717.287237  	-0.041572 
2718.718895  	-0.041628 
2720.150553  	-0.041776 
2721.582211  	-0.041777 
2723.013870  	-0.041918 
2724.445528  	-0.041954 
2725.877186  	-0.041776 
2727.308844  	-0.041672 
2728.740502  	-0.041637 
2730.172160  	-0.041704 
2731.603819  	-0.041699 
2733.035477  	-0.041563 
2734.467135  	-0.041610 
2735.898793  	-0.041709 
2737.330451  	-0.041802 
2738.762110  	-0.041951 
2740.193768  	-0.041879 
2741.625426  	-0.041747 
2743.057084  	-0.041850 
2744.488742  	-0.042044 
2745.920401  	-0.042083 
2747.352059  	-0.041925 
2748.783717  	-0.042002 
2750.215375  	-0.042225 
2751.647033  	-0.042057 
2753.078691  	-0.041927 
2754.510350  	-0.042062 
2755.942008  	-0.042024 
2757.373666  	-0.041892 
2758.805324  	-0.041728 
2760.236982  	-0.041644 
2761.668641  	-0.041808 
2763.100299  	-0.041802 
2764.531957  	-0.041695 
2765.963615  	-0.041803 
2767.395273  	-0.041772 
2768.826931  	-0.041542 
2770.258590  	-0.041349 
2771.690248  	-0.041278 
2773.121906  	-0.041304 
2774.553564  	-0.041208 
2775.985222  	-0.041120 
2777.416881  	-0.041178 
2778.848539  	-0.041203 
2780.280197  	-0.041362 
2781.711855  	-0.041618 
2783.143513  	-0.041653 
2784.575172  	-0.041615 
2786.006830  	-0.041659 
2787.438488  	-0.041720 
2788.870146  	-0.041710 
2790.301804  	-0.041709 
2791.733462  	-0.041780 
2793.165121  	-0.041588 
2794.596779  	-0.041367 
2796.028437  	-0.041524 
2797.460095  	-0.041511 
2798.891753  	-0.041427 
2800.323412  	-0.041731 
2801.755070  	-0.041869 
2803.186728  	-0.041732 
2804.618386  	-0.041562 
2806.050044  	-0.041345 
2807.481703  	-0.041364 
2808.913361  	-0.041428 
2810.345019  	-0.041374 
2811.776677  	-0.041440 
2813.208335  	-0.041427 
2814.639993  	-0.041552 
2816.071652  	-0.041808 
2817.503310  	-0.041579 
2818.934968  	-0.041397 
2820.366626  	-0.041528 
2821.798284  	-0.041328 
2823.229943  	-0.041153 
2824.661601  	-0.041322 
2826.093259  	-0.041553 
2827.524917  	-0.041688 
2828.956575  	-0.041439 
2830.388233  	-0.041204 
2831.819892  	-0.041482 
2833.251550  	-0.041665 
2834.683208  	-0.041504 
2836.114866  	-0.041316 
2837.546524  	-0.041068 
2838.978183  	-0.040875 
2840.409841  	-0.040877 
2841.841499  	-0.040845 
2843.273157  	-0.040585 
2844.704815  	-0.040121 
2846.136474  	-0.039482 
2847.568132  	-0.038796 
2848.999790  	-0.038479 
2850.431448  	-0.038453 
2851.863106  	-0.038327 
2853.294764  	-0.038467 
2854.726423  	-0.038866 
2856.158081  	-0.038954 
2857.589739  	-0.038957 
2859.021397  	-0.038923 
2860.453055  	-0.038525 
2861.884714  	-0.037916 
2863.316372  	-0.037139 
2864.748030  	-0.036373 
2866.179688  	-0.035743 
2867.611346  	-0.034910 
2869.043005  	-0.034105 
2870.474663  	-0.033476 
2871.906321  	-0.032774 
2873.337979  	-0.032484 
2874.769637  	-0.032717 
2876.201295  	-0.032996 
2877.632954  	-0.033451 
2879.064612  	-0.034063 
2880.496270  	-0.034616 
2881.927928  	-0.035160 
2883.359586  	-0.035516 
2884.791245  	-0.035680 
2886.222903  	-0.035807 
2887.654561  	-0.035818 
2889.086219  	-0.035718 
2890.517877  	-0.035534 
2891.949535  	-0.035477 
2893.381194  	-0.035730 
2894.812852  	-0.035985 
2896.244510  	-0.036152 
2897.676168  	-0.036287 
2899.107826  	-0.036211 
2900.539485  	-0.036141 
2901.971143  	-0.036158 
2903.402801  	-0.035919 
2904.834459  	-0.035579 
2906.266117  	-0.035376 
2907.697776  	-0.035111 
2909.129434  	-0.034708 
2910.561092  	-0.034231 
2911.992750  	-0.033701 
2913.424408  	-0.033174 
2914.856066  	-0.032631 
2916.287725  	-0.032204 
2917.719383  	-0.032142 
2919.151041  	-0.032223 
2920.582699  	-0.032215 
2922.014357  	-0.032341 
2923.446016  	-0.032417 
2924.877674  	-0.032047 
2926.309332  	-0.031587 
2927.740990  	-0.031300 
2929.172648  	-0.030900 
2930.604306  	-0.030402 
2932.035965  	-0.030026 
2933.467623  	-0.029820 
2934.899281  	-0.029752 
2936.330939  	-0.029829 
2937.762597  	-0.030085 
2939.194256  	-0.030313 
2940.625914  	-0.030473 
2942.057572  	-0.030875 
2943.489230  	-0.031245 
2944.920888  	-0.031232 
2946.352547  	-0.031206 
2947.784205  	-0.031246 
2949.215863  	-0.031037 
2950.647521  	-0.030564 
2952.079179  	-0.029889 
2953.510837  	-0.029133 
2954.942496  	-0.028318 
2956.374154  	-0.027061 
2957.805812  	-0.025134 
2959.237470  	-0.022962 
2960.669128  	-0.020968 
2962.100787  	-0.018990 
2963.532445  	-0.017082 
2964.964103  	-0.015608 
2966.395761  	-0.014496 
2967.827419  	-0.013903 
2969.259078  	-0.014043 
2970.690736  	-0.014447 
2972.122394  	-0.015021 
2973.554052  	-0.016221 
2974.985710  	-0.018012 
2976.417368  	-0.019909 
2977.849027  	-0.021512 
2979.280685  	-0.023066 
2980.712343  	-0.024981 
2982.144001  	-0.026831 
2983.575659  	-0.028361 
2985.007318  	-0.029850 
2986.438976  	-0.031266 
2987.870634  	-0.032715 
2989.302292  	-0.034044 
2990.733950  	-0.034890 
2992.165608  	-0.035755 
2993.597267  	-0.036736 
2995.028925  	-0.037551 
2996.460583  	-0.038440 
2997.892241  	-0.039022 
2999.323899  	-0.039329 
3000.755558  	-0.040058 
3002.187216  	-0.040743 
3003.618874  	-0.041102 
3005.050532  	-0.041434 
3006.482190  	-0.041576 
3007.913849  	-0.041737 
3009.345507  	-0.041892 
3010.777165  	-0.041894 
3012.208823  	-0.042317 
3013.640481  	-0.042883 
3015.072139  	-0.043014 
3016.503798  	-0.043033 
3017.935456  	-0.043014 
3019.367114  	-0.043048 
3020.798772  	-0.043270 
3022.230430  	-0.043330 
3023.662089  	-0.043222 
3025.093747  	-0.043170 
3026.525405  	-0.043257 
3027.957063  	-0.043224 
3029.388721  	-0.042585 
3030.820380  	-0.041832 
3032.252038  	-0.041442 
3033.683696  	-0.040875 
3035.115354  	-0.040286 
3036.547012  	-0.040033 
3037.978670  	-0.039729 
3039.410329  	-0.039413 
3040.841987  	-0.039252 
3042.273645  	-0.039179 
3043.705303  	-0.039331 
3045.136961  	-0.039531 
3046.568620  	-0.039568 
3048.000278  	-0.039738 
3049.431936  	-0.040115 
3050.863594  	-0.040308 
3052.295252  	-0.040086 
3053.726910  	-0.039693 
3055.158569  	-0.039516 
3056.590227  	-0.039633 
3058.021885  	-0.039714 
3059.453543  	-0.039507 
3060.885201  	-0.039408 
3062.316860  	-0.039623 
3063.748518  	-0.039676 
3065.180176  	-0.039693 
3066.611834  	-0.040150 
3068.043492  	-0.040785 
3069.475151  	-0.041258 
3070.906809  	-0.041445 
3072.338467  	-0.041361 
3073.770125  	-0.041384 
3075.201783  	-0.041678 
3076.633441  	-0.041989 
3078.065100  	-0.042168 
3079.496758  	-0.042301 
3080.928416  	-0.042342 
3082.360074  	-0.042170 
3083.791732  	-0.042225 
3085.223391  	-0.042679 
3086.655049  	-0.042960 
3088.086707  	-0.043146 
3089.518365  	-0.043303 
3090.950023  	-0.043172 
3092.381682  	-0.043511 
3093.813340  	-0.044260 
3095.244998  	-0.044220 
3096.676656  	-0.043729 
3098.108314  	-0.043633 
3099.539972  	-0.043815 
3100.971631  	-0.044004 
3102.403289  	-0.043893 
3103.834947  	-0.043737 
3105.266605  	-0.044045 
3106.698263  	-0.044392 
3108.129922  	-0.044254 
3109.561580  	-0.043874 
3110.993238  	-0.043795 
3112.424896  	-0.044017 
3113.856554  	-0.044100 
3115.288212  	-0.044128 
3116.719871  	-0.044200 
3118.151529  	-0.044263 
3119.583187  	-0.044600 
3121.014845  	-0.044832 
3122.446503  	-0.044597 
3123.878162  	-0.044379 
3125.309820  	-0.044316 
3126.741478  	-0.044486 
3128.173136  	-0.044773 
3129.604794  	-0.044677 
3131.036453  	-0.044757 
3132.468111  	-0.045293 
3133.899769  	-0.045485 
3135.331427  	-0.045305 
3136.763085  	-0.045167 
3138.194743  	-0.045341 
3139.626402  	-0.045674 
3141.058060  	-0.045433 
3142.489718  	-0.044979 
3143.921376  	-0.045048 
3145.353034  	-0.045376 
3146.784693  	-0.045685 
3148.216351  	-0.045723 
3149.648009  	-0.045641 
3151.079667  	-0.045779 
3152.511325  	-0.045676 
3153.942983  	-0.045607 
3155.374642  	-0.045854 
3156.806300  	-0.045719 
3158.237958  	-0.045658 
3159.669616  	-0.045918 
3161.101274  	-0.045880 
3162.532933  	-0.046013 
3163.964591  	-0.046192 
3165.396249  	-0.045912 
3166.827907  	-0.045774 
3168.259565  	-0.045813 
3169.691224  	-0.045862 
3171.122882  	-0.045927 
3172.554540  	-0.045716 
3173.986198  	-0.045736 
3175.417856  	-0.046097 
3176.849514  	-0.046194 
3178.281173  	-0.046157 
3179.712831  	-0.046025 
3181.144489  	-0.045953 
3182.576147  	-0.046168 
3184.007805  	-0.046155 
3185.439464  	-0.046024 
3186.871122  	-0.045968 
3188.302780  	-0.045739 
3189.734438  	-0.045829 
3191.166096  	-0.046093 
3192.597755  	-0.045963 
3194.029413  	-0.045906 
3195.461071  	-0.046049 
3196.892729  	-0.046178 
3198.324387  	-0.046278 
3199.756045  	-0.046163 
3201.187704  	-0.046125 
3202.619362  	-0.046256 
3204.051020  	-0.046128 
3205.482678  	-0.045881 
3206.914336  	-0.045806 
3208.345995  	-0.045959 
3209.777653  	-0.046223 
3211.209311  	-0.046405 
3212.640969  	-0.046551 
3214.072627  	-0.046487 
3215.504285  	-0.046320 
3216.935944  	-0.046470 
3218.367602  	-0.046498 
3219.799260  	-0.046261 
3221.230918  	-0.046193 
3222.662576  	-0.046236 
3224.094235  	-0.046455 
3225.525893  	-0.046595 
3226.957551  	-0.046374 
3228.389209  	-0.046412 
3229.820867  	-0.046524 
3231.252526  	-0.046315 
3232.684184  	-0.046413 
3234.115842  	-0.046670 
3235.547500  	-0.046662 
3236.979158  	-0.046546 
3238.410816  	-0.046303 
3239.842475  	-0.046355 
3241.274133  	-0.046721 
3242.705791  	-0.046613 
3244.137449  	-0.046311 
3245.569107  	-0.046415 
3247.000766  	-0.046598 
3248.432424  	-0.046569 
3249.864082  	-0.046432 
3251.295740  	-0.046420 
3252.727398  	-0.046565 
3254.159057  	-0.046649 
3255.590715  	-0.046624 
3257.022373  	-0.046481 
3258.454031  	-0.046372 
3259.885689  	-0.046552 
3261.317347  	-0.046717 
3262.749006  	-0.046425 
3264.180664  	-0.045848 
3265.612322  	-0.045649 
3267.043980  	-0.046083 
3268.475638  	-0.046423 
3269.907297  	-0.046272 
3271.338955  	-0.046186 
3272.770613  	-0.046416 
3274.202271  	-0.046667 
3275.633929  	-0.046688 
3277.065587  	-0.046475 
3278.497246  	-0.046337 
3279.928904  	-0.046502 
3281.360562  	-0.046765 
3282.792220  	-0.046642 
3284.223878  	-0.046226 
3285.655537  	-0.046201 
3287.087195  	-0.046340 
3288.518853  	-0.046180 
3289.950511  	-0.046185 
3291.382169  	-0.046238 
3292.813828  	-0.046041 
3294.245486  	-0.046166 
3295.677144  	-0.046309 
3297.108802  	-0.045969 
3298.540460  	-0.045852 
3299.972118  	-0.046054 
3301.403777  	-0.045957 
3302.835435  	-0.045790 
3304.267093  	-0.045972 
3305.698751  	-0.046255 
3307.130409  	-0.046304 
3308.562068  	-0.046383 
3309.993726  	-0.046803 
3311.425384  	-0.047097 
3312.857042  	-0.046923 
3314.288700  	-0.046749 
3315.720359  	-0.046874 
3317.152017  	-0.046978 
3318.583675  	-0.046790 
3320.015333  	-0.046525 
3321.446991  	-0.046554 
3322.878649  	-0.046852 
3324.310308  	-0.047135 
3325.741966  	-0.047252 
3327.173624  	-0.047179 
3328.605282  	-0.047139 
3330.036940  	-0.047331 
3331.468599  	-0.047367 
3332.900257  	-0.047067 
3334.331915  	-0.046955 
3335.763573  	-0.047009 
3337.195231  	-0.046871 
3338.626889  	-0.046882 
3340.058548  	-0.047114 
3341.490206  	-0.047237 
3342.921864  	-0.047291 
3344.353522  	-0.047278 
3345.785180  	-0.047350 
3347.216839  	-0.047557 
3348.648497  	-0.047368 
3350.080155  	-0.047030 
3351.511813  	-0.047201 
3352.943471  	-0.047560 
3354.375130  	-0.047814 
3355.806788  	-0.047915 
3357.238446  	-0.047667 
3358.670104  	-0.047378 
3360.101762  	-0.047371 
3361.533420  	-0.047495 
3362.965079  	-0.047503 
3364.396737  	-0.047530 
3365.828395  	-0.047898 
3367.260053  	-0.048089 
3368.691711  	-0.047789 
3370.123370  	-0.047677 
3371.555028  	-0.047693 
3372.986686  	-0.047627 
3374.418344  	-0.047673 
3375.850002  	-0.047469 
3377.281660  	-0.047358 
3378.713319  	-0.047684 
3380.144977  	-0.047725 
3381.576635  	-0.047624 
3383.008293  	-0.047621 
3384.439951  	-0.047483 
3385.871610  	-0.047690 
3387.303268  	-0.047995 
3388.734926  	-0.047940 
3390.166584  	-0.047816 
3391.598242  	-0.047532 
3393.029901  	-0.047399 
3394.461559  	-0.047434 
3395.893217  	-0.047057 
3397.324875  	-0.047044 
3398.756533  	-0.047425 
3400.188191  	-0.047289 
3401.619850  	-0.047321 
3403.051508  	-0.047528 
3404.483166  	-0.047331 
3405.914824  	-0.047422 
3407.346482  	-0.047734 
3408.778141  	-0.047758 
3410.209799  	-0.047675 
3411.641457  	-0.047545 
3413.073115  	-0.047580 
3414.504773  	-0.047798 
3415.936432  	-0.048004 
3417.368090  	-0.048119 
3418.799748  	-0.047833 
3420.231406  	-0.047638 
3421.663064  	-0.047936 
3423.094722  	-0.047840 
3424.526381  	-0.047474 
3425.958039  	-0.047499 
3427.389697  	-0.047607 
3428.821355  	-0.047637 
3430.253013  	-0.047661 
3431.684672  	-0.047790 
3433.116330  	-0.047983 
3434.547988  	-0.047909 
3435.979646  	-0.047886 
3437.411304  	-0.047998 
3438.842962  	-0.047874 
3440.274621  	-0.047787 
3441.706279  	-0.047734 
3443.137937  	-0.047695 
3444.569595  	-0.047834 
3446.001253  	-0.047748 
3447.432912  	-0.047760 
3448.864570  	-0.048018 
3450.296228  	-0.047860 
3451.727886  	-0.047813 
3453.159544  	-0.047880 
3454.591203  	-0.047496 
3456.022861  	-0.047432 
3457.454519  	-0.047520 
3458.886177  	-0.047186 
3460.317835  	-0.047269 
3461.749493  	-0.047563 
3463.181152  	-0.047467 
3464.612810  	-0.047572 
3466.044468  	-0.047779 
3467.476126  	-0.047685 
3468.907784  	-0.047682 
3470.339443  	-0.047882 
3471.771101  	-0.047851 
3473.202759  	-0.047554 
3474.634417  	-0.047464 
3476.066075  	-0.047592 
3477.497734  	-0.047566 
3478.929392  	-0.047353 
3480.361050  	-0.047093 
3481.792708  	-0.047155 
3483.224366  	-0.047485 
3484.656024  	-0.047464 
3486.087683  	-0.047408 
3487.519341  	-0.047621 
3488.950999  	-0.047688 
3490.382657  	-0.047818 
3491.814315  	-0.048123 
3493.245974  	-0.048251 
3494.677632  	-0.048191 
3496.109290  	-0.047975 
3497.540948  	-0.047852 
3498.972606  	-0.047737 
3500.404264  	-0.047194 
3501.835923  	-0.046854 
3503.267581  	-0.047157 
3504.699239  	-0.047410 
3506.130897  	-0.047478 
3507.562555  	-0.047480 
3508.994214  	-0.047342 
3510.425872  	-0.047223 
3511.857530  	-0.047186 
3513.289188  	-0.047334 
3514.720846  	-0.047480 
3516.152505  	-0.047266 
3517.584163  	-0.047122 
3519.015821  	-0.047228 
3520.447479  	-0.047058 
3521.879137  	-0.046699 
3523.310795  	-0.046761 
3524.742454  	-0.047103 
3526.174112  	-0.046830 
3527.605770  	-0.046265 
3529.037428  	-0.046304 
3530.469086  	-0.046557 
3531.900745  	-0.046869 
3533.332403  	-0.047263 
3534.764061  	-0.047033 
3536.195719  	-0.046767 
3537.627377  	-0.046961 
3539.059035  	-0.046734 
3540.490694  	-0.046693 
3541.922352  	-0.047121 
3543.354010  	-0.046769 
3544.785668  	-0.046168 
3546.217326  	-0.046550 
3547.648985  	-0.047228 
3549.080643  	-0.047350 
3550.512301  	-0.047014 
3551.943959  	-0.046764 
3553.375617  	-0.047170 
3554.807276  	-0.047669 
3556.238934  	-0.047565 
3557.670592  	-0.047228 
3559.102250  	-0.047218 
3560.533908  	-0.047358 
3561.965566  	-0.047328 
3563.397225  	-0.046941 
3564.828883  	-0.045885 
3566.260541  	-0.045239 
3567.692199  	-0.046825 
3569.123857  	-0.048209 
3570.555516  	-0.047798 
3571.987174  	-0.047465 
3573.418832  	-0.047350 
3574.850490  	-0.047203 
3576.282148  	-0.047316 
3577.713807  	-0.047487 
3579.145465  	-0.047730 
3580.577123  	-0.047964 
3582.008781  	-0.047906 
3583.440439  	-0.047663 
3584.872097  	-0.046921 
3586.303756  	-0.046085 
3587.735414  	-0.046853 
3589.167072  	-0.048417 
3590.598730  	-0.048394 
3592.030388  	-0.047718 
3593.462047  	-0.046947 
3594.893705  	-0.046449 
3596.325363  	-0.047048 
3597.757021  	-0.047806 
3599.188679  	-0.047601 
3600.620337  	-0.047481 
3602.051996  	-0.047871 
3603.483654  	-0.047662 
3604.915312  	-0.047509 
3606.346970  	-0.047711 
3607.778628  	-0.047362 
3609.210287  	-0.047519 
3610.641945  	-0.047907 
3612.073603  	-0.046942 
3613.505261  	-0.046799 
3614.936919  	-0.048028 
3616.368578  	-0.047425 
3617.800236  	-0.045873 
3619.231894  	-0.045970 
3620.663552  	-0.047749 
3622.095210  	-0.048462 
3623.526868  	-0.047895 
3624.958527  	-0.047400 
3626.390185  	-0.046646 
3627.821843  	-0.045245 
3629.253501  	-0.046168 
3630.685159  	-0.048435 
3632.116818  	-0.047430 
3633.548476  	-0.047190 
3634.980134  	-0.048227 
3636.411792  	-0.048024 
3637.843450  	-0.047808 
3639.275109  	-0.048318 
3640.706767  	-0.048052 
3642.138425  	-0.047763 
3643.570083  	-0.048155 
3645.001741  	-0.047526 
3646.433399  	-0.045902 
3647.865058  	-0.045331 
3649.296716  	-0.045738 
3650.728374  	-0.046363 
3652.160032  	-0.048492 
3653.591690  	-0.048504 
3655.023349  	-0.046994 
3656.455007  	-0.047335 
3657.886665  	-0.048719 
3659.318323  	-0.048070 
3660.749981  	-0.047760 
3662.181639  	-0.048237 
3663.613298  	-0.048272 
3665.044956  	-0.048118 
3666.476614  	-0.047582 
3667.908272  	-0.046398 
3669.339930  	-0.045505 
3670.771589  	-0.046389 
3672.203247  	-0.047033 
3673.634905  	-0.045739 
3675.066563  	-0.045226 
3676.498221  	-0.048427 
3677.929880  	-0.048587 
3679.361538  	-0.047819 
3680.793196  	-0.048247 
3682.224854  	-0.047942 
3683.656512  	-0.047457 
3685.088170  	-0.047355 
3686.519829  	-0.046467 
3687.951487  	-0.046028 
3689.383145  	-0.047438 
3690.814803  	-0.047985 
3692.246461  	-0.047935 
3693.678120  	-0.048006 
3695.109778  	-0.047505 
3696.541436  	-0.047270 
3697.973094  	-0.047489 
3699.404752  	-0.047091 
3700.836411  	-0.046762 
3702.268069  	-0.047752 
3703.699727  	-0.048647 
3705.131385  	-0.048445 
3706.563043  	-0.047993 
3707.994701  	-0.047424 
3709.426360  	-0.046854 
3710.858018  	-0.046757 
3712.289676  	-0.047533 
3713.721334  	-0.049093 
3715.152992  	-0.049543 
3716.584651  	-0.048696 
3718.016309  	-0.048159 
3719.447967  	-0.048036 
3720.879625  	-0.047300 
3722.311283  	-0.046926 
3723.742941  	-0.047327 
3725.174600  	-0.047194 
3726.606258  	-0.047136 
3728.037916  	-0.047852 
3729.469574  	-0.047930 
3730.901232  	-0.047573 
3732.332891  	-0.047690 
3733.764549  	-0.046906 
3735.196207  	-0.045795 
3736.627865  	-0.048403 
3738.059523  	-0.050052 
3739.491182  	-0.048851 
3740.922840  	-0.048533 
3742.354498  	-0.047414 
3743.786156  	-0.045065 
3745.217814  	-0.048140 
3746.649472  	-0.050063 
3748.081131  	-0.047416 
3749.512789  	-0.046676 
3750.944447  	-0.047618 
3752.376105  	-0.047964 
3753.807763  	-0.049651 
3755.239422  	-0.049398 
3756.671080  	-0.048634 
3758.102738  	-0.049147 
3759.534396  	-0.048793 
3760.966054  	-0.048873 
3762.397712  	-0.049735 
3763.829371  	-0.048919 
3765.261029  	-0.048437 
3766.692687  	-0.049230 
3768.124345  	-0.048573 
3769.556003  	-0.047920 
3770.987662  	-0.049143 
3772.419320  	-0.049894 
3773.850978  	-0.049476 
3775.282636  	-0.049252 
3776.714294  	-0.049491 
3778.145953  	-0.049197 
3779.577611  	-0.048841 
3781.009269  	-0.049350 
3782.440927  	-0.049138 
3783.872585  	-0.048456 
3785.304243  	-0.048546 
3786.735902  	-0.048919 
3788.167560  	-0.049217 
3789.599218  	-0.049302 
3791.030876  	-0.049080 
3792.462534  	-0.049351 
3793.894193  	-0.049308 
3795.325851  	-0.048407 
3796.757509  	-0.048213 
3798.189167  	-0.048420 
3799.620825  	-0.047299 
3801.052484  	-0.046325 
3802.484142  	-0.048445 
3803.915800  	-0.049616 
3805.347458  	-0.048237 
3806.779116  	-0.048021 
3808.210774  	-0.050128 
3809.642433  	-0.049895 
3811.074091  	-0.049112 
3812.505749  	-0.049212 
3813.937407  	-0.048387 
3815.369065  	-0.047791 
3816.800724  	-0.049623 
3818.232382  	-0.049084 
3819.664040  	-0.046877 
3821.095698  	-0.047510 
3822.527356  	-0.050773 
3823.959014  	-0.049977 
3825.390673  	-0.048799 
3826.822331  	-0.049332 
3828.253989  	-0.049516 
3829.685647  	-0.048464 
3831.117305  	-0.047996 
3832.548964  	-0.048424 
3833.980622  	-0.048662 
3835.412280  	-0.048347 
3836.843938  	-0.047851 
3838.275596  	-0.048076 
3839.707255  	-0.048643 
3841.138913  	-0.048722 
3842.570571  	-0.048922 
3844.002229  	-0.049211 
3845.433887  	-0.049377 
3846.865545  	-0.049266 
3848.297204  	-0.048942 
3849.728862  	-0.048760 
3851.160520  	-0.047689 
3852.592178  	-0.045647 
3854.023836  	-0.047423 
3855.455495  	-0.050297 
3856.887153  	-0.049634 
3858.318811  	-0.049497 
3859.750469  	-0.049264 
3861.182127  	-0.048622 
3862.613786  	-0.048299 
3864.045444  	-0.047552 
3865.477102  	-0.048301 
3866.908760  	-0.049803 
3868.340418  	-0.048342 
3869.772076  	-0.047363 
3871.203735  	-0.049782 
3872.635393  	-0.049427 
3874.067051  	-0.048779 
3875.498709  	-0.050007 
3876.930367  	-0.049540 
3878.362026  	-0.048159 
3879.793684  	-0.047769 
3881.225342  	-0.048760 
3882.657000  	-0.049312 
3884.088658  	-0.048142 
3885.520316  	-0.047535 
3886.951975  	-0.049627 
3888.383633  	-0.049787 
3889.815291  	-0.048507 
3891.246949  	-0.048651 
3892.678607  	-0.049788 
3894.110266  	-0.049965 
3895.541924  	-0.049698 
3896.973582  	-0.048957 
3898.405240  	-0.048194 
3899.836898  	-0.048296 
3901.268557  	-0.048456 
3902.700215  	-0.048112 
3904.131873  	-0.048766 
3905.563531  	-0.050136 
3906.995189  	-0.050095 
3908.426847  	-0.049440 
3909.858506  	-0.049322 
3911.290164  	-0.049649 
3912.721822  	-0.050082 
3914.153480  	-0.049998 
3915.585138  	-0.049235 
3917.016797  	-0.048687 
3918.448455  	-0.048800 
3919.880113  	-0.049071 
3921.311771  	-0.049254 
3922.743429  	-0.048933 
3924.175088  	-0.048683 
3925.606746  	-0.049353 
3927.038404  	-0.049783 
3928.470062  	-0.049492 
3929.901720  	-0.049209 
3931.333378  	-0.048999 
3932.765037  	-0.049146 
3934.196695  	-0.049574 
3935.628353  	-0.049472 
3937.060011  	-0.049342 
3938.491669  	-0.049541 
3939.923328  	-0.049238 
3941.354986  	-0.048465 
3942.786644  	-0.048296 
3944.218302  	-0.049030 
3945.649960  	-0.049457 
3947.081618  	-0.049239 
3948.513277  	-0.049247 
3949.944935  	-0.049740 
3951.376593  	-0.049972 
3952.808251  	-0.049888 
3954.239909  	-0.049835 
3955.671568  	-0.049788 
3957.103226  	-0.049731 
3958.534884  	-0.049776 
3959.966542  	-0.049775 
3961.398200  	-0.049599 
3962.829859  	-0.049571 
3964.261517  	-0.049691 
3965.693175  	-0.049616 
3967.124833  	-0.049619 
3968.556491  	-0.049580 
3969.988149  	-0.049032 
3971.419808  	-0.048787 
3972.851466  	-0.049227 
3974.283124  	-0.049412 
3975.714782  	-0.049308 
3977.146440  	-0.049297 
3978.578099  	-0.049273 
3980.009757  	-0.049448 
3981.441415  	-0.049618 
3982.873073  	-0.049355 
3984.304731  	-0.049166 
3985.736389  	-0.049407 
3987.168048  	-0.049513 
3988.599706  	-0.049173 
3990.031364  	-0.049024 
3991.463022  	-0.049332 
3992.894680  	-0.049377 
3994.326339  	-0.049359 
3995.757997  	-0.049752 
3997.189655  	-0.049753 
3998.621313  	-0.049389 
4000.052971  	-0.049396 