##TITLE=No Description
##DATA TYPE=INFRARED SPECTRUM
##XUNITS=1/CM
##YUNITS=Abs
399.432634  	0.029291 
400.864292  	0.068074 
402.295950  	0.088253 
403.727608  	0.085079 
405.159267  	0.092989 
406.590925  	0.091221 
408.022583  	0.078472 
409.454241  	0.087202 
410.885899  	0.104043 
412.317558  	0.090846 
413.749216  	0.057345 
415.180874  	0.060627 
416.612532  	0.091177 
418.044190  	0.070999 
419.475848  	0.014706 
420.907507  	0.033345 
422.339165  	0.054444 
423.770823  	0.062308 
425.202481  	0.069064 
426.634139  	0.061586 
428.065798  	0.049561 
429.497456  	0.046181 
430.929114  	0.043390 
432.360772  	0.044644 
433.792430  	0.049882 
435.224089  	0.055267 
436.655747  	0.059170 
438.087405  	0.060178 
439.519063  	0.064404 
440.950721  	0.068317 
442.382379  	0.066701 
443.814038  	0.070651 
445.245696  	0.067317 
446.677354  	0.049936 
448.109012  	0.047498 
449.540670  	0.059255 
450.972329  	0.064667 
452.403987  	0.070488 
453.835645  	0.077109 
455.267303  	0.073193 
456.698961  	0.062331 
458.130619  	0.060017 
459.562278  	0.068684 
460.993936  	0.071465 
462.425594  	0.068144 
463.857252  	0.064302 
465.288910  	0.061489 
466.720569  	0.065305 
468.152227  	0.072653 
469.583885  	0.073664 
471.015543  	0.075143 
472.447201  	0.077651 
473.878860  	0.074992 
475.310518  	0.075040 
476.742176  	0.077826 
478.173834  	0.079492 
479.605492  	0.086423 
481.037150  	0.097366 
482.468809  	0.100363 
483.900467  	0.097359 
485.332125  	0.104135 
486.763783  	0.115225 
488.195441  	0.114690 
489.627100  	0.111397 
491.058758  	0.114968 
492.490416  	0.115565 
493.922074  	0.116233 
495.353732  	0.125706 
496.785391  	0.136627 
498.217049  	0.144929 
499.648707  	0.153881 
501.080365  	0.167814 
502.512023  	0.193300 
503.943681  	0.223923 
505.375340  	0.255444 
506.806998  	0.289870 
508.238656  	0.302816 
509.670314  	0.284693 
511.101972  	0.262751 
512.533631  	0.248329 
513.965289  	0.232485 
515.396947  	0.213210 
516.828605  	0.192917 
518.260263  	0.172583 
519.691921  	0.154763 
521.123580  	0.139374 
522.555238  	0.125920 
523.986896  	0.115481 
525.418554  	0.106034 
526.850212  	0.096094 
528.281871  	0.088632 
529.713529  	0.083918 
531.145187  	0.082009 
532.576845  	0.083966 
534.008503  	0.085745 
535.440162  	0.084771 
536.871820  	0.084175 
538.303478  	0.084613 
539.735136  	0.084978 
541.166794  	0.085858 
542.598452  	0.086788 
544.030111  	0.087215 
545.461769  	0.086180 
546.893427  	0.084020 
548.325085  	0.084086 
549.756743  	0.085933 
551.188402  	0.087253 
552.620060  	0.088218 
554.051718  	0.087611 
555.483376  	0.086084 
556.915034  	0.086601 
558.346692  	0.088378 
559.778351  	0.090644 
561.210009  	0.092405 
562.641667  	0.091647 
564.073325  	0.091354 
565.504983  	0.093163 
566.936642  	0.093768 
568.368300  	0.093971 
569.799958  	0.095139 
571.231616  	0.096003 
572.663274  	0.098671 
574.094933  	0.102671 
575.526591  	0.104296 
576.958249  	0.105515 
578.389907  	0.107965 
579.821565  	0.107545 
581.253223  	0.105079 
582.684882  	0.105770 
584.116540  	0.108135 
585.548198  	0.108699 
586.979856  	0.108537 
588.411514  	0.109171 
589.843173  	0.109565 
591.274831  	0.108908 
592.706489  	0.109044 
594.138147  	0.110879 
595.569805  	0.111747 
597.001464  	0.112036 
598.433122  	0.115623 
599.864780  	0.121569 
601.296438  	0.126416 
602.728096  	0.131571 
604.159754  	0.140408 
605.591413  	0.152341 
607.023071  	0.164175 
608.454729  	0.173680 
609.886387  	0.177942 
611.318045  	0.175245 
612.749704  	0.167029 
614.181362  	0.157924 
615.613020  	0.151365 
617.044678  	0.146018 
618.476336  	0.141650 
619.907994  	0.139766 
621.339653  	0.139325 
622.771311  	0.138685 
624.202969  	0.138670 
625.634627  	0.139865 
627.066285  	0.141349 
628.497944  	0.143684 
629.929602  	0.147143 
631.361260  	0.150352 
632.792918  	0.153580 
634.224576  	0.157768 
635.656235  	0.161356 
637.087893  	0.162270 
638.519551  	0.162216 
639.951209  	0.163435 
641.382867  	0.164362 
642.814525  	0.164014 
644.246184  	0.164298 
645.677842  	0.165733 
647.109500  	0.167452 
648.541158  	0.168742 
649.972816  	0.168685 
651.404475  	0.167950 
652.836133  	0.168204 
654.267791  	0.169363 
655.699449  	0.169600 
657.131107  	0.168331 
658.562766  	0.167167 
659.994424  	0.166612 
661.426082  	0.165986 
662.857740  	0.164871 
664.289398  	0.163826 
665.721056  	0.165356 
667.152715  	0.171068 
668.584373  	0.171619 
670.016031  	0.163175 
671.447689  	0.159456 
672.879347  	0.158479 
674.311006  	0.158004 
675.742664  	0.156575 
677.174322  	0.154017 
678.605980  	0.151598 
680.037638  	0.148993 
681.469296  	0.146099 
682.900955  	0.144157 
684.332613  	0.142433 
685.764271  	0.139897 
687.195929  	0.136763 
688.627587  	0.133875 
690.059246  	0.131777 
691.490904  	0.129077 
692.922562  	0.125755 
694.354220  	0.123651 
695.785878  	0.122253 
697.217537  	0.120224 
698.649195  	0.118247 
700.080853  	0.118208 
701.512511  	0.120038 
702.944169  	0.121077 
704.375827  	0.121565 
705.807486  	0.123535 
707.239144  	0.124666 
708.670802  	0.123227 
710.102460  	0.121063 
711.534118  	0.117852 
712.965777  	0.113962 
714.397435  	0.111857 
715.829093  	0.110880 
717.260751  	0.110371 
718.692409  	0.111088 
720.124067  	0.111153 
721.555726  	0.109556 
722.987384  	0.108629 
724.419042  	0.108964 
725.850700  	0.109417 
727.282358  	0.109917 
728.714017  	0.110463 
730.145675  	0.110375 
731.577333  	0.109979 
733.008991  	0.110239 
734.440649  	0.110954 
735.872308  	0.112334 
737.303966  	0.115180 
738.735624  	0.118818 
740.167282  	0.123400 
741.598940  	0.129558 
743.030598  	0.135795 
744.462257  	0.142460 
745.893915  	0.150042 
747.325573  	0.155352 
748.757231  	0.157921 
750.188889  	0.159071 
751.620548  	0.158114 
753.052206  	0.156557 
754.483864  	0.155906 
755.915522  	0.156180 
757.347180  	0.158708 
758.778839  	0.163201 
760.210497  	0.169257 
761.642155  	0.179291 
763.073813  	0.193805 
764.505471  	0.211485 
765.937129  	0.230994 
767.368788  	0.249194 
768.800446  	0.262508 
770.232104  	0.266693 
771.663762  	0.258524 
773.095420  	0.239456 
774.527079  	0.215103 
775.958737  	0.190388 
777.390395  	0.167882 
778.822053  	0.150221 
780.253711  	0.137801 
781.685369  	0.127590 
783.117028  	0.116207 
784.548686  	0.102941 
785.980344  	0.090038 
787.412002  	0.079382 
788.843660  	0.071291 
790.275319  	0.066126 
791.706977  	0.063351 
793.138635  	0.061874 
794.570293  	0.062194 
796.001951  	0.064753 
797.433610  	0.068532 
798.865268  	0.073977 
800.296926  	0.082085 
801.728584  	0.091653 
803.160242  	0.102339 
804.591900  	0.114108 
806.023559  	0.125692 
807.455217  	0.137873 
808.886875  	0.150999 
810.318533  	0.163546 
811.750191  	0.175123 
813.181850  	0.184968 
814.613508  	0.191607 
816.045166  	0.193394 
817.476824  	0.188365 
818.908482  	0.176371 
820.340141  	0.159905 
821.771799  	0.142504 
823.203457  	0.127015 
824.635115  	0.115008 
826.066773  	0.106407 
827.498431  	0.100342 
828.930090  	0.095703 
830.361748  	0.092064 
831.793406  	0.089970 
833.225064  	0.088924 
834.656722  	0.088133 
836.088381  	0.087945 
837.520039  	0.088652 
838.951697  	0.090537 
840.383355  	0.093801 
841.815013  	0.097803 
843.246671  	0.101990 
844.678330  	0.106170 
846.109988  	0.109674 
847.541646  	0.111501 
848.973304  	0.110948 
850.404962  	0.107945 
851.836621  	0.103397 
853.268279  	0.098238 
854.699937  	0.092837 
856.131595  	0.087839 
857.563253  	0.084027 
858.994912  	0.081708 
860.426570  	0.080177 
861.858228  	0.078034 
863.289886  	0.074557 
864.721544  	0.069667 
866.153202  	0.063013 
867.584861  	0.054669 
869.016519  	0.045618 
870.448177  	0.036948 
871.879835  	0.029354 
873.311493  	0.023397 
874.743152  	0.019203 
876.174810  	0.016535 
877.606468  	0.015364 
879.038126  	0.014817 
880.469784  	0.014163 
881.901443  	0.014087 
883.333101  	0.014617 
884.764759  	0.015159 
886.196417  	0.015771 
887.628075  	0.016586 
889.059733  	0.017631 
890.491392  	0.018532 
891.923050  	0.019100 
893.354708  	0.019979 
894.786366  	0.021248 
896.218024  	0.022571 
897.649683  	0.023931 
899.081341  	0.025240 
900.512999  	0.026830 
901.944657  	0.028855 
903.376315  	0.030775 
904.807973  	0.032937 
906.239632  	0.036371 
907.671290  	0.041101 
909.102948  	0.046409 
910.534606  	0.052072 
911.966264  	0.057888 
913.397923  	0.062483 
914.829581  	0.064239 
916.261239  	0.062838 
917.692897  	0.059505 
919.124555  	0.055595 
920.556214  	0.051774 
921.987872  	0.048780 
923.419530  	0.046901 
924.851188  	0.045983 
926.282846  	0.046596 
927.714504  	0.048581 
929.146163  	0.050769 
930.577821  	0.053413 
932.009479  	0.056682 
933.441137  	0.059631 
934.872795  	0.062471 
936.304454  	0.065833 
937.736112  	0.069737 
939.167770  	0.073750 
940.599428  	0.076898 
942.031086  	0.079402 
943.462744  	0.082248 
944.894403  	0.085288 
946.326061  	0.088106 
947.757719  	0.090720 
949.189377  	0.093528 
950.621035  	0.096817 
952.052694  	0.100152 
953.484352  	0.103422 
954.916010  	0.106685 
956.347668  	0.109637 
957.779326  	0.112199 
959.210985  	0.114009 
960.642643  	0.114894 
962.074301  	0.115220 
963.505959  	0.114734 
964.937617  	0.113230 
966.369275  	0.111406 
967.800934  	0.110165 
969.232592  	0.109693 
970.664250  	0.109591 
972.095908  	0.110175 
973.527566  	0.112017 
974.959225  	0.114649 
976.390883  	0.117556 
977.822541  	0.120512 
979.254199  	0.123135 
980.685857  	0.125278 
982.117516  	0.126294 
983.549174  	0.125382 
984.980832  	0.122758 
986.412490  	0.119478 
987.844148  	0.116569 
989.275806  	0.114141 
990.707465  	0.112388 
992.139123  	0.111920 
993.570781  	0.112340 
995.002439  	0.113400 
996.434097  	0.115636 
997.865756  	0.118573 
999.297414  	0.121657 
1000.729072  	0.125144 
1002.160730  	0.129152 
1003.592388  	0.133807 
1005.024046  	0.138895 
1006.455705  	0.144421 
1007.887363  	0.150892 
1009.319021  	0.158229 
1010.750679  	0.167261 
1012.182337  	0.179020 
1013.613996  	0.194161 
1015.045654  	0.215249 
1016.477312  	0.239298 
1017.908970  	0.251922 
1019.340628  	0.241883 
1020.772287  	0.215896 
1022.203945  	0.189995 
1023.635603  	0.171985 
1025.067261  	0.163244 
1026.498919  	0.164165 
1027.930577  	0.171211 
1029.362236  	0.179975 
1030.793894  	0.189940 
1032.225552  	0.200279 
1033.657210  	0.210149 
1035.088868  	0.219847 
1036.520527  	0.227992 
1037.952185  	0.234948 
1039.383843  	0.241889 
1040.815501  	0.248937 
1042.247159  	0.257622 
1043.678818  	0.268328 
1045.110476  	0.281237 
1046.542134  	0.296533 
1047.973792  	0.312471 
1049.405450  	0.330127 
1050.837108  	0.349569 
1052.268767  	0.368942 
1053.700425  	0.389969 
1055.132083  	0.410599 
1056.563741  	0.429845 
1057.995399  	0.449539 
1059.427058  	0.465147 
1060.858716  	0.477620 
1062.290374  	0.487631 
1063.722032  	0.492293 
1065.153690  	0.496950 
1066.585348  	0.499183 
1068.017007  	0.497531 
1069.448665  	0.498533 
1070.880323  	0.498472 
1072.311981  	0.497725 
1073.743639  	0.497908 
1075.175298  	0.494139 
1076.606956  	0.490185 
1078.038614  	0.483675 
1079.470272  	0.470569 
1080.901930  	0.454916 
1082.333589  	0.431839 
1083.765247  	0.400944 
1085.196905  	0.367098 
1086.628563  	0.332689 
1088.060221  	0.306237 
1089.491879  	0.291129 
1090.923538  	0.284056 
1092.355196  	0.283840 
1093.786854  	0.287055 
1095.218512  	0.291400 
1096.650170  	0.297731 
1098.081829  	0.303657 
1099.513487  	0.309999 
1100.945145  	0.317358 
1102.376803  	0.322529 
1103.808461  	0.326887 
1105.240120  	0.328812 
1106.671778  	0.325839 
1108.103436  	0.321123 
1109.535094  	0.314462 
1110.966752  	0.305553 
1112.398410  	0.293912 
1113.830069  	0.277809 
1115.261727  	0.260687 
1116.693385  	0.244397 
1118.125043  	0.228362 
1119.556701  	0.213846 
1120.988360  	0.200328 
1122.420018  	0.186549 
1123.851676  	0.172281 
1125.283334  	0.157572 
1126.714992  	0.143118 
1128.146650  	0.129094 
1129.578309  	0.115655 
1131.009967  	0.103480 
1132.441625  	0.092715 
1133.873283  	0.083137 
1135.304941  	0.074706 
1136.736600  	0.067308 
1138.168258  	0.060883 
1139.599916  	0.055808 
1141.031574  	0.051634 
1142.463232  	0.047683 
1143.894891  	0.044499 
1145.326549  	0.041987 
1146.758207  	0.039599 
1148.189865  	0.037564 
1149.621523  	0.035847 
1151.053181  	0.034471 
1152.484840  	0.033400 
1153.916498  	0.032607 
1155.348156  	0.032591 
1156.779814  	0.032928 
1158.211472  	0.033459 
1159.643131  	0.034877 
1161.074789  	0.036748 
1162.506447  	0.038990 
1163.938105  	0.042051 
1165.369763  	0.045581 
1166.801421  	0.049518 
1168.233080  	0.054039 
1169.664738  	0.059497 
1171.096396  	0.065991 
1172.528054  	0.073216 
1173.959712  	0.081846 
1175.391371  	0.092118 
1176.823029  	0.103875 
1178.254687  	0.117385 
1179.686345  	0.131377 
1181.118003  	0.144056 
1182.549662  	0.154078 
1183.981320  	0.162356 
1185.412978  	0.171785 
1186.844636  	0.183043 
1188.276294  	0.196694 
1189.707952  	0.213042 
1191.139611  	0.230612 
1192.571269  	0.250221 
1194.002927  	0.271647 
1195.434585  	0.294295 
1196.866243  	0.320641 
1198.297902  	0.349801 
1199.729560  	0.381132 
1201.161218  	0.412538 
1202.592876  	0.436852 
1204.024534  	0.453786 
1205.456193  	0.461885 
1206.887851  	0.461745 
1208.319509  	0.462458 
1209.751167  	0.466370 
1211.182825  	0.477409 
1212.614483  	0.498407 
1214.046142  	0.522460 
1215.477800  	0.548307 
1216.909458  	0.570666 
1218.341116  	0.582460 
1219.772774  	0.588336 
1221.204433  	0.584046 
1222.636091  	0.572153 
1224.067749  	0.559645 
1225.499407  	0.541985 
1226.931065  	0.523977 
1228.362723  	0.506373 
1229.794382  	0.485305 
1231.226040  	0.465310 
1232.657698  	0.443259 
1234.089356  	0.418190 
1235.521014  	0.393224 
1236.952673  	0.365184 
1238.384331  	0.335913 
1239.815989  	0.306998 
1241.247647  	0.278224 
1242.679305  	0.253282 
1244.110964  	0.232763 
1245.542622  	0.217528 
1246.974280  	0.210155 
1248.405938  	0.209536 
1249.837596  	0.213456 
1251.269254  	0.217938 
1252.700913  	0.216768 
1254.132571  	0.208480 
1255.564229  	0.193205 
1256.995887  	0.172377 
1258.427545  	0.150622 
1259.859204  	0.129749 
1261.290862  	0.110535 
1262.722520  	0.094477 
1264.154178  	0.081661 
1265.585836  	0.071902 
1267.017495  	0.065321 
1268.449153  	0.061210 
1269.880811  	0.058790 
1271.312469  	0.057596 
1272.744127  	0.057058 
1274.175785  	0.057033 
1275.607444  	0.056843 
1277.039102  	0.055930 
1278.470760  	0.054867 
1279.902418  	0.053548 
1281.334076  	0.051971 
1282.765735  	0.050829 
1284.197393  	0.049940 
1285.629051  	0.049429 
1287.060709  	0.049854 
1288.492367  	0.051567 
1289.924025  	0.055359 
1291.355684  	0.061207 
1292.787342  	0.068949 
1294.219000  	0.078842 
1295.650658  	0.091020 
1297.082316  	0.106410 
1298.513975  	0.124840 
1299.945633  	0.146557 
1301.377291  	0.171939 
1302.808949  	0.198293 
1304.240607  	0.224430 
1305.672266  	0.246873 
1307.103924  	0.261620 
1308.535582  	0.268745 
1309.967240  	0.265971 
1311.398898  	0.256094 
1312.830556  	0.241809 
1314.262215  	0.224576 
1315.693873  	0.210088 
1317.125531  	0.196967 
1318.557189  	0.180396 
1319.988847  	0.158815 
1321.420506  	0.133780 
1322.852164  	0.109963 
1324.283822  	0.089400 
1325.715480  	0.072782 
1327.147138  	0.059819 
1328.578796  	0.049483 
1330.010455  	0.041872 
1331.442113  	0.036203 
1332.873771  	0.032246 
1334.305429  	0.029964 
1335.737087  	0.028781 
1337.168746  	0.028827 
1338.600404  	0.029294 
1340.032062  	0.029619 
1341.463720  	0.029846 
1342.895378  	0.029654 
1344.327037  	0.029443 
1345.758695  	0.029403 
1347.190353  	0.029970 
1348.622011  	0.031712 
1350.053669  	0.033913 
1351.485327  	0.036802 
1352.916986  	0.040445 
1354.348644  	0.043937 
1355.780302  	0.047562 
1357.211960  	0.050670 
1358.643618  	0.053017 
1360.075277  	0.055439 
1361.506935  	0.057422 
1362.938593  	0.058898 
1364.370251  	0.060148 
1365.801909  	0.060969 
1367.233568  	0.061467 
1368.665226  	0.061221 
1370.096884  	0.060349 
1371.528542  	0.059295 
1372.960200  	0.057770 
1374.391858  	0.055402 
1375.823517  	0.052674 
1377.255175  	0.050377 
1378.686833  	0.047897 
1380.118491  	0.044987 
1381.550149  	0.042324 
1382.981808  	0.040237 
1384.413466  	0.039236 
1385.845124  	0.039063 
1387.276782  	0.038960 
1388.708440  	0.038454 
1390.140098  	0.037645 
1391.571757  	0.036605 
1393.003415  	0.036033 
1394.435073  	0.036328 
1395.866731  	0.037519 
1397.298389  	0.040281 
1398.730048  	0.044706 
1400.161706  	0.050418 
1401.593364  	0.058243 
1403.025022  	0.069305 
1404.456680  	0.085259 
1405.888339  	0.109240 
1407.319997  	0.140173 
1408.751655  	0.177088 
1410.183313  	0.220929 
1411.614971  	0.257805 
1413.046629  	0.272563 
1414.478288  	0.264155 
1415.909946  	0.228881 
1417.341604  	0.185645 
1418.773262  	0.138802 
1420.204920  	0.084413 
1421.636579  	0.057979 
1423.068237  	0.043822 
1424.499895  	0.030942 
1425.931553  	0.028411 
1427.363211  	0.030083 
1428.794870  	0.034245 
1430.226528  	0.042470 
1431.658186  	0.048684 
1433.089844  	0.054204 
1434.521502  	0.058486 
1435.953160  	0.058801 
1437.384819  	0.054621 
1438.816477  	0.050411 
1440.248135  	0.047229 
1441.679793  	0.045491 
1443.111451  	0.046093 
1444.543110  	0.049309 
1445.974768  	0.053060 
1447.406426  	0.054269 
1448.838084  	0.053596 
1450.269742  	0.052545 
1451.701400  	0.051507 
1453.133059  	0.051582 
1454.564717  	0.052404 
1455.996375  	0.053467 
1457.428033  	0.053220 
1458.859691  	0.051282 
1460.291350  	0.052297 
1461.723008  	0.055115 
1463.154666  	0.058377 
1464.586324  	0.062848 
1466.017982  	0.066700 
1467.449641  	0.070259 
1468.881299  	0.074783 
1470.312957  	0.078935 
1471.744615  	0.084420 
1473.176273  	0.090815 
1474.607931  	0.095951 
1476.039590  	0.103654 
1477.471248  	0.109173 
1478.902906  	0.109205 
1480.334564  	0.104589 
1481.766222  	0.093627 
1483.197881  	0.084277 
1484.629539  	0.077255 
1486.061197  	0.071531 
1487.492855  	0.069506 
1488.924513  	0.066767 
1490.356172  	0.066941 
1491.787830  	0.070711 
1493.219488  	0.074011 
1494.651146  	0.081831 
1496.082804  	0.091218 
1497.514462  	0.100570 
1498.946121  	0.116217 
1500.377779  	0.129840 
1501.809437  	0.145633 
1503.241095  	0.166343 
1504.672753  	0.183285 
1506.104412  	0.207382 
1507.536070  	0.247020 
1508.967728  	0.271974 
1510.399386  	0.305806 
1511.831044  	0.335165 
1513.262702  	0.357415 
1514.694361  	0.382256 
1516.126019  	0.392670 
1517.557677  	0.407384 
1518.989335  	0.431129 
1520.420993  	0.442203 
1521.852652  	0.473596 
1523.284310  	0.490758 
1524.715968  	0.496869 
1526.147626  	0.512276 
1527.579284  	0.500959 
1529.010943  	0.493144 
1530.442601  	0.484653 
1531.874259  	0.462086 
1533.305917  	0.443686 
1534.737575  	0.405434 
1536.169233  	0.378191 
1537.600892  	0.363820 
1539.032550  	0.327556 
1540.464208  	0.284547 
1541.895866  	0.253362 
1543.327524  	0.220327 
1544.759183  	0.195517 
1546.190841  	0.164099 
1547.622499  	0.140771 
1549.054157  	0.123754 
1550.485815  	0.097937 
1551.917473  	0.080146 
1553.349132  	0.068006 
1554.780790  	0.050537 
1556.212448  	0.040221 
1557.644106  	0.034957 
1559.075764  	0.023853 
1560.507423  	0.014395 
1561.939081  	0.011796 
1563.370739  	0.009988 
1564.802397  	0.007903 
1566.234055  	0.005636 
1567.665714  	0.004543 
1569.097372  	0.002607 
1570.529030  	-0.001202 
1571.960688  	-0.003539 
1573.392346  	-0.004627 
1574.824004  	-0.005047 
1576.255663  	-0.004870 
1577.687321  	-0.003809 
1579.118979  	-0.001967 
1580.550637  	0.001315 
1581.982295  	0.006512 
1583.413954  	0.013429 
1584.845612  	0.023942 
1586.277270  	0.037899 
1587.708928  	0.055876 
1589.140586  	0.079687 
1590.572245  	0.104721 
1592.003903  	0.131345 
1593.435561  	0.154794 
1594.867219  	0.167536 
1596.298877  	0.174986 
1597.730535  	0.170983 
1599.162194  	0.159033 
1600.593852  	0.145553 
1602.025510  	0.127451 
1603.457168  	0.111838 
1604.888826  	0.099562 
1606.320485  	0.089171 
1607.752143  	0.083932 
1609.183801  	0.080341 
1610.615459  	0.078348 
1612.047117  	0.077835 
1613.478775  	0.074013 
1614.910434  	0.070395 
1616.342092  	0.062424 
1617.773750  	0.045423 
1619.205408  	0.035481 
1620.637066  	0.026316 
1622.068725  	0.017215 
1623.500383  	0.011360 
1624.932041  	0.005320 
1626.363699  	0.003050 
1627.795357  	0.003218 
1629.227016  	0.001556 
1630.658674  	0.002897 
1632.090332  	0.005641 
1633.521990  	0.007474 
1634.953648  	0.011882 
1636.385306  	0.013067 
1637.816965  	0.010036 
1639.248623  	0.008324 
1640.680281  	0.003321 
1642.111939  	0.000111 
1643.543597  	-0.000809 
1644.975256  	-0.002419 
1646.406914  	-0.001268 
1647.838572  	-0.003245 
1649.270230  	-0.004621 
1650.701888  	-0.002117 
1652.133547  	-0.002202 
1653.565205  	-0.000735 
1654.996863  	0.001816 
1656.428521  	0.001427 
1657.860179  	0.004996 
1659.291837  	0.007338 
1660.723496  	0.008722 
1662.155154  	0.013770 
1663.586812  	0.015546 
1665.018470  	0.018799 
1666.450128  	0.024024 
1667.881787  	0.025947 
1669.313445  	0.032551 
1670.745103  	0.038448 
1672.176761  	0.041964 
1673.608419  	0.052310 
1675.040077  	0.059668 
1676.471736  	0.069965 
1677.903394  	0.084756 
1679.335052  	0.094553 
1680.766710  	0.113002 
1682.198368  	0.132235 
1683.630027  	0.143323 
1685.061685  	0.180498 
1686.493343  	0.204603 
1687.925001  	0.226421 
1689.356659  	0.264509 
1690.788318  	0.295794 
1692.219976  	0.332154 
1693.651634  	0.373679 
1695.083292  	0.398910 
1696.514950  	0.432122 
1697.946608  	0.453902 
1699.378267  	0.449409 
1700.809925  	0.417974 
1702.241583  	0.385395 
1703.673241  	0.361455 
1705.104899  	0.328557 
1706.536558  	0.290008 
1707.968216  	0.260989 
1709.399874  	0.238596 
1710.831532  	0.217393 
1712.263190  	0.198096 
1713.694849  	0.184177 
1715.126507  	0.168999 
1716.558165  	0.155070 
1717.989823  	0.145288 
1719.421481  	0.132711 
1720.853139  	0.128352 
1722.284798  	0.127413 
1723.716456  	0.124827 
1725.148114  	0.126467 
1726.579772  	0.128678 
1728.011430  	0.128129 
1729.443089  	0.126797 
1730.874747  	0.119632 
1732.306405  	0.111837 
1733.738063  	0.102586 
1735.169721  	0.077136 
1736.601379  	0.064453 
1738.033038  	0.054187 
1739.464696  	0.036739 
1740.896354  	0.023818 
1742.328012  	0.012961 
1743.759670  	0.002090 
1745.191329  	-0.004247 
1746.622987  	-0.011631 
1748.054645  	-0.016259 
1749.486303  	-0.019290 
1750.917961  	-0.024720 
1752.349620  	-0.025704 
1753.781278  	-0.027798 
1755.212936  	-0.029837 
1756.644594  	-0.029309 
1758.076252  	-0.031836 
1759.507910  	-0.032268 
1760.939569  	-0.031470 
1762.371227  	-0.033994 
1763.802885  	-0.033578 
1765.234543  	-0.033583 
1766.666201  	-0.034388 
1768.097860  	-0.033075 
1769.529518  	-0.034640 
1770.961176  	-0.034887 
1772.392834  	-0.033352 
1773.824492  	-0.035975 
1775.256150  	-0.035266 
1776.687809  	-0.034754 
1778.119467  	-0.035848 
1779.551125  	-0.034462 
1780.982783  	-0.035248 
1782.414441  	-0.036189 
1783.846100  	-0.034875 
1785.277758  	-0.035715 
1786.709416  	-0.035446 
1788.141074  	-0.035091 
1789.572732  	-0.035994 
1791.004391  	-0.034403 
1792.436049  	-0.034787 
1793.867707  	-0.036247 
1795.299365  	-0.035236 
1796.731023  	-0.036377 
1798.162681  	-0.036342 
1799.594340  	-0.035478 
1801.025998  	-0.037013 
1802.457656  	-0.036498 
1803.889314  	-0.036680 
1805.320972  	-0.037702 
1806.752631  	-0.036708 
1808.184289  	-0.037384 
1809.615947  	-0.037688 
1811.047605  	-0.036793 
1812.479263  	-0.037935 
1813.910922  	-0.037665 
1815.342580  	-0.037712 
1816.774238  	-0.038857 
1818.205896  	-0.038112 
1819.637554  	-0.038736 
1821.069212  	-0.038990 
1822.500871  	-0.038046 
1823.932529  	-0.039205 
1825.364187  	-0.039048 
1826.795845  	-0.039107 
1828.227503  	-0.040253 
1829.659162  	-0.038713 
1831.090820  	-0.039230 
1832.522478  	-0.040235 
1833.954136  	-0.039552 
1835.385794  	-0.040892 
1836.817452  	-0.040730 
1838.249111  	-0.040074 
1839.680769  	-0.041457 
1841.112427  	-0.040618 
1842.544085  	-0.040523 
1843.975743  	-0.041752 
1845.407402  	-0.041103 
1846.839060  	-0.042233 
1848.270718  	-0.041997 
1849.702376  	-0.041093 
1851.134034  	-0.042079 
1852.565693  	-0.041296 
1853.997351  	-0.041766 
1855.429009  	-0.042834 
1856.860667  	-0.041182 
1858.292325  	-0.041788 
1859.723983  	-0.042193 
1861.155642  	-0.041166 
1862.587300  	-0.042531 
1864.018958  	-0.042144 
1865.450616  	-0.041526 
1866.882274  	-0.042163 
1868.313933  	-0.040735 
1869.745591  	-0.042063 
1871.177249  	-0.042951 
1872.608907  	-0.041320 
1874.040565  	-0.042101 
1875.472224  	-0.041730 
1876.903882  	-0.041006 
1878.335540  	-0.042272 
1879.767198  	-0.041484 
1881.198856  	-0.041702 
1882.630514  	-0.042358 
1884.062173  	-0.041133 
1885.493831  	-0.041746 
1886.925489  	-0.040983 
1888.357147  	-0.039851 
1889.788805  	-0.041520 
1891.220464  	-0.040822 
1892.652122  	-0.040555 
1894.083780  	-0.040818 
1895.515438  	-0.038740 
1896.947096  	-0.039203 
1898.378754  	-0.039525 
1899.810413  	-0.038647 
1901.242071  	-0.039377 
1902.673729  	-0.038277 
1904.105387  	-0.038318 
1905.537045  	-0.039489 
1906.968704  	-0.038205 
1908.400362  	-0.039063 
1909.832020  	-0.039216 
1911.263678  	-0.037988 
1912.695336  	-0.039883 
1914.126995  	-0.039832 
1915.558653  	-0.040020 
1916.990311  	-0.041722 
1918.421969  	-0.039917 
1919.853627  	-0.040864 
1921.285285  	-0.042087 
1922.716944  	-0.040462 
1924.148602  	-0.041664 
1925.580260  	-0.040828 
1927.011918  	-0.039874 
1928.443576  	-0.042360 
1929.875235  	-0.041990 
1931.306893  	-0.042953 
1932.738551  	-0.044082 
1934.170209  	-0.041832 
1935.601867  	-0.043610 
1937.033525  	-0.043357 
1938.465184  	-0.040463 
1939.896842  	-0.042297 
1941.328500  	-0.041858 
1942.760158  	-0.041661 
1944.191816  	-0.043507 
1945.623475  	-0.041260 
1947.055133  	-0.041695 
1948.486791  	-0.041819 
1949.918449  	-0.040199 
1951.350107  	-0.042613 
1952.781766  	-0.041847 
1954.213424  	-0.041251 
1955.645082  	-0.043111 
1957.076740  	-0.040916 
1958.508398  	-0.042401 
1959.940056  	-0.042675 
1961.371715  	-0.038925 
1962.803373  	-0.041411 
1964.235031  	-0.039675 
1965.666689  	-0.036991 
1967.098347  	-0.041108 
1968.530006  	-0.040213 
1969.961664  	-0.040956 
1971.393322  	-0.042102 
1972.824980  	-0.038727 
1974.256638  	-0.041644 
1975.688297  	-0.040676 
1977.119955  	-0.037326 
1978.551613  	-0.041404 
1979.983271  	-0.040554 
1981.414929  	-0.040632 
1982.846587  	-0.042055 
1984.278246  	-0.039758 
1985.709904  	-0.042492 
1987.141562  	-0.042895 
1988.573220  	-0.040579 
1990.004878  	-0.042734 
1991.436537  	-0.041291 
1992.868195  	-0.042156 
1994.299853  	-0.044362 
1995.731511  	-0.040598 
1997.163169  	-0.041496 
1998.594827  	-0.041884 
2000.026486  	-0.040021 
2001.458144  	-0.043757 
2002.889802  	-0.041598 
2004.321460  	-0.039253 
2005.753118  	-0.043076 
2007.184777  	-0.040459 
2008.616435  	-0.040101 
2010.048093  	-0.041194 
2011.479751  	-0.037435 
2012.911409  	-0.038924 
2014.343068  	-0.039535 
2015.774726  	-0.039583 
2017.206384  	-0.041830 
2018.638042  	-0.038111 
2020.069700  	-0.039620 
2021.501358  	-0.042462 
2022.933017  	-0.039217 
2024.364675  	-0.041791 
2025.796333  	-0.041239 
2027.227991  	-0.038397 
2028.659649  	-0.041752 
2030.091308  	-0.039210 
2031.522966  	-0.038443 
2032.954624  	-0.040774 
2034.386282  	-0.037590 
2035.817940  	-0.040300 
2037.249599  	-0.041749 
2038.681257  	-0.038657 
2040.112915  	-0.039972 
2041.544573  	-0.038093 
2042.976231  	-0.038096 
2044.407889  	-0.041291 
2045.839548  	-0.039419 
2047.271206  	-0.041218 
2048.702864  	-0.043327 
2050.134522  	-0.041886 
2051.566180  	-0.043501 
2052.997839  	-0.042174 
2054.429497  	-0.040992 
2055.861155  	-0.043052 
2057.292813  	-0.042029 
2058.724471  	-0.043254 
2060.156129  	-0.044762 
2061.587788  	-0.042529 
2063.019446  	-0.043794 
2064.451104  	-0.044836 
2065.882762  	-0.044139 
2067.314420  	-0.045068 
2068.746079  	-0.044078 
2070.177737  	-0.044508 
2071.609395  	-0.045047 
2073.041053  	-0.043180 
2074.472711  	-0.044696 
2075.904370  	-0.045117 
2077.336028  	-0.043421 
2078.767686  	-0.044610 
2080.199344  	-0.044429 
2081.631002  	-0.044221 
2083.062660  	-0.045226 
2084.494319  	-0.044388 
2085.925977  	-0.044677 
2087.357635  	-0.044601 
2088.789293  	-0.044190 
2090.220951  	-0.046012 
2091.652610  	-0.045518 
2093.084268  	-0.044570 
2094.515926  	-0.044840 
2095.947584  	-0.043837 
2097.379242  	-0.045462 
2098.810901  	-0.046453 
2100.242559  	-0.044684 
2101.674217  	-0.045278 
2103.105875  	-0.044947 
2104.537533  	-0.044692 
2105.969191  	-0.046444 
2107.400850  	-0.045250 
2108.832508  	-0.044573 
2110.264166  	-0.045266 
2111.695824  	-0.044483 
2113.127482  	-0.044971 
2114.559141  	-0.044638 
2115.990799  	-0.044186 
2117.422457  	-0.045479 
2118.854115  	-0.044631 
2120.285773  	-0.044538 
2121.717431  	-0.045279 
2123.149090  	-0.043814 
2124.580748  	-0.044600 
2126.012406  	-0.045475 
2127.444064  	-0.044502 
2128.875722  	-0.044963 
2130.307381  	-0.044254 
2131.739039  	-0.043892 
2133.170697  	-0.043604 
2134.602355  	-0.041096 
2136.034013  	-0.042802 
2137.465672  	-0.043933 
2138.897330  	-0.041776 
2140.328988  	-0.043832 
2141.760646  	-0.043757 
2143.192304  	-0.041772 
2144.623962  	-0.042441 
2146.055621  	-0.040981 
2147.487279  	-0.042763 
2148.918937  	-0.044598 
2150.350595  	-0.040647 
2151.782253  	-0.039796 
2153.213912  	-0.038664 
2154.645570  	-0.038010 
2156.077228  	-0.041806 
2157.508886  	-0.039964 
2158.940544  	-0.039145 
2160.372202  	-0.040042 
2161.803861  	-0.036813 
2163.235519  	-0.040554 
2164.667177  	-0.042644 
2166.098835  	-0.040322 
2167.530493  	-0.042693 
2168.962152  	-0.043129 
2170.393810  	-0.043373 
2171.825468  	-0.044000 
2173.257126  	-0.041629 
2174.688784  	-0.043100 
2176.120443  	-0.043132 
2177.552101  	-0.041210 
2178.983759  	-0.043772 
2180.415417  	-0.042444 
2181.847075  	-0.041015 
2183.278733  	-0.042623 
2184.710392  	-0.040202 
2186.142050  	-0.041002 
2187.573708  	-0.042863 
2189.005366  	-0.041324 
2190.437024  	-0.042775 
2191.868683  	-0.042597 
2193.300341  	-0.041582 
2194.731999  	-0.043141 
2196.163657  	-0.042480 
2197.595315  	-0.043982 
2199.026974  	-0.045089 
2200.458632  	-0.041408 
2201.890290  	-0.041429 
2203.321948  	-0.043439 
2204.753606  	-0.043922 
2206.185264  	-0.044197 
2207.616923  	-0.042278 
2209.048581  	-0.042873 
2210.480239  	-0.044770 
2211.911897  	-0.044096 
2213.343555  	-0.045570 
2214.775214  	-0.045467 
2216.206872  	-0.043533 
2217.638530  	-0.044865 
2219.070188  	-0.044776 
2220.501846  	-0.044210 
2221.933504  	-0.044918 
2223.365163  	-0.044680 
2224.796821  	-0.046188 
2226.228479  	-0.045857 
2227.660137  	-0.043774 
2229.091795  	-0.045399 
2230.523454  	-0.046360 
2231.955112  	-0.046467 
2233.386770  	-0.047025 
2234.818428  	-0.045589 
2236.250086  	-0.046278 
2237.681745  	-0.047412 
2239.113403  	-0.046006 
2240.545061  	-0.045743 
2241.976719  	-0.045296 
2243.408377  	-0.045504 
2244.840035  	-0.047027 
2246.271694  	-0.046580 
2247.703352  	-0.047021 
2249.135010  	-0.047228 
2250.566668  	-0.045342 
2251.998326  	-0.045537 
2253.429985  	-0.045731 
2254.861643  	-0.045617 
2256.293301  	-0.046782 
2257.724959  	-0.045934 
2259.156617  	-0.045701 
2260.588276  	-0.046478 
2262.019934  	-0.045454 
2263.451592  	-0.045653 
2264.883250  	-0.045971 
2266.314908  	-0.045811 
2267.746566  	-0.047082 
2269.178225  	-0.046666 
2270.609883  	-0.045796 
2272.041541  	-0.045905 
2273.473199  	-0.045388 
2274.904857  	-0.046552 
2276.336516  	-0.047572 
2277.768174  	-0.046731 
2279.199832  	-0.046774 
2280.631490  	-0.046388 
2282.063148  	-0.045932 
2283.494806  	-0.046417 
2284.926465  	-0.046024 
2286.358123  	-0.046008 
2287.789781  	-0.046082 
2289.221439  	-0.045710 
2290.653097  	-0.046233 
2292.084756  	-0.045679 
2293.516414  	-0.044903 
2294.948072  	-0.045618 
2296.379730  	-0.045388 
2297.811388  	-0.044997 
2299.243047  	-0.045016 
2300.674705  	-0.044087 
2302.106363  	-0.043702 
2303.538021  	-0.043454 
2304.969679  	-0.042890 
2306.401337  	-0.042849 
2307.832996  	-0.042009 
2309.264654  	-0.041291 
2310.696312  	-0.041262 
2312.127970  	-0.040484 
2313.559628  	-0.040158 
2314.991287  	-0.040070 
2316.422945  	-0.039635 
2317.854603  	-0.039449 
2319.286261  	-0.037964 
2320.717919  	-0.036255 
2322.149577  	-0.035751 
2323.581236  	-0.035046 
2325.012894  	-0.034853 
2326.444552  	-0.034581 
2327.876210  	-0.033253 
2329.307868  	-0.032299 
2330.739527  	-0.031561 
2332.171185  	-0.031457 
2333.602843  	-0.032265 
2335.034501  	-0.032117 
2336.466159  	-0.031710 
2337.897818  	-0.031370 
2339.329476  	-0.030604 
2340.761134  	-0.030335 
2342.192792  	-0.029832 
2343.624450  	-0.029681 
2345.056108  	-0.030689 
2346.487767  	-0.032711 
2347.919425  	-0.036298 
2349.351083  	-0.037738 
2350.782741  	-0.034988 
2352.214399  	-0.032001 
2353.646058  	-0.030614 
2355.077716  	-0.028522 
2356.509374  	-0.026959 
2357.941032  	-0.025803 
2359.372690  	-0.025101 
2360.804349  	-0.025577 
2362.236007  	-0.025513 
2363.667665  	-0.026259 
2365.099323  	-0.027591 
2366.530981  	-0.028207 
2367.962639  	-0.029689 
2369.394298  	-0.031029 
2370.825956  	-0.032460 
2372.257614  	-0.034594 
2373.689272  	-0.035787 
2375.120930  	-0.037250 
2376.552589  	-0.038920 
2377.984247  	-0.040072 
2379.415905  	-0.042075 
2380.847563  	-0.043729 
2382.279221  	-0.044788 
2383.710879  	-0.046369 
2385.142538  	-0.047243 
2386.574196  	-0.047698 
2388.005854  	-0.048139 
2389.437512  	-0.047887 
2390.869170  	-0.048181 
2392.300829  	-0.048738 
2393.732487  	-0.048603 
2395.164145  	-0.048617 
2396.595803  	-0.048638 
2398.027461  	-0.048759 
2399.459120  	-0.049050 
2400.890778  	-0.048976 
2402.322436  	-0.048974 
2403.754094  	-0.048571 
2405.185752  	-0.048159 
2406.617410  	-0.048592 
2408.049069  	-0.048467 
2409.480727  	-0.048263 
2410.912385  	-0.048592 
2412.344043  	-0.048465 
2413.775701  	-0.048761 
2415.207360  	-0.048845 
2416.639018  	-0.048262 
2418.070676  	-0.048812 
2419.502334  	-0.049186 
2420.933992  	-0.048625 
2422.365651  	-0.048497 
2423.797309  	-0.048333 
2425.228967  	-0.048444 
2426.660625  	-0.048874 
2428.092283  	-0.048875 
2429.523941  	-0.048771 
2430.955600  	-0.048098 
2432.387258  	-0.047938 
2433.818916  	-0.048981 
2435.250574  	-0.049054 
2436.682232  	-0.048700 
2438.113891  	-0.048725 
2439.545549  	-0.048448 
2440.977207  	-0.048861 
2442.408865  	-0.049126 
2443.840523  	-0.048693 
2445.272181  	-0.048747 
2446.703840  	-0.048421 
2448.135498  	-0.048240 
2449.567156  	-0.048921 
2450.998814  	-0.049200 
2452.430472  	-0.049374 
2453.862131  	-0.049161 
2455.293789  	-0.048535 
2456.725447  	-0.048720 
2458.157105  	-0.048761 
2459.588763  	-0.048524 
2461.020422  	-0.048483 
2462.452080  	-0.048174 
2463.883738  	-0.048469 
2465.315396  	-0.048582 
2466.747054  	-0.048129 
2468.178712  	-0.048707 
2469.610371  	-0.048827 
2471.042029  	-0.048219 
2472.473687  	-0.048535 
2473.905345  	-0.048585 
2475.337003  	-0.048287 
2476.768662  	-0.048091 
2478.200320  	-0.047506 
2479.631978  	-0.047490 
2481.063636  	-0.047903 
2482.495294  	-0.048203 
2483.926953  	-0.048245 
2485.358611  	-0.047647 
2486.790269  	-0.047853 
2488.221927  	-0.048492 
2489.653585  	-0.048279 
2491.085243  	-0.048575 
2492.516902  	-0.048744 
2493.948560  	-0.048348 
2495.380218  	-0.048474 
2496.811876  	-0.048008 
2498.243534  	-0.047778 
2499.675193  	-0.048578 
2501.106851  	-0.048653 
2502.538509  	-0.048755 
2503.970167  	-0.049077 
2505.401825  	-0.048701 
2506.833483  	-0.048617 
2508.265142  	-0.048638 
2509.696800  	-0.048619 
2511.128458  	-0.048591 
2512.560116  	-0.048087 
2513.991774  	-0.048440 
2515.423433  	-0.049125 
2516.855091  	-0.048922 
2518.286749  	-0.048889 
2519.718407  	-0.048765 
2521.150065  	-0.048946 
2522.581724  	-0.049667 
2524.013382  	-0.049210 
2525.445040  	-0.048809 
2526.876698  	-0.049319 
2528.308356  	-0.049545 
2529.740014  	-0.049707 
2531.171673  	-0.049138 
2532.603331  	-0.048487 
2534.034989  	-0.048997 
2535.466647  	-0.049167 
2536.898305  	-0.049479 
2538.329964  	-0.049986 
2539.761622  	-0.049213 
2541.193280  	-0.048936 
2542.624938  	-0.049113 
2544.056596  	-0.048581 
2545.488254  	-0.048664 
2546.919913  	-0.048774 
2548.351571  	-0.048658 
2549.783229  	-0.048917 
2551.214887  	-0.048697 
2552.646545  	-0.048766 
2554.078204  	-0.049060 
2555.509862  	-0.048597 
2556.941520  	-0.048365 
2558.373178  	-0.048304 
2559.804836  	-0.048225 
2561.236495  	-0.048264 
2562.668153  	-0.048006 
2564.099811  	-0.048361 
2565.531469  	-0.048655 
2566.963127  	-0.048037 
2568.394785  	-0.047939 
2569.826444  	-0.047959 
2571.258102  	-0.047945 
2572.689760  	-0.048363 
2574.121418  	-0.048036 
2575.553076  	-0.047805 
2576.984735  	-0.048105 
2578.416393  	-0.048081 
2579.848051  	-0.048524 
2581.279709  	-0.048549 
2582.711367  	-0.048017 
2584.143026  	-0.048540 
2585.574684  	-0.048760 
2587.006342  	-0.048178 
2588.438000  	-0.047869 
2589.869658  	-0.047753 
2591.301316  	-0.048158 
2592.732975  	-0.048174 
2594.164633  	-0.047575 
2595.596291  	-0.047864 
2597.027949  	-0.048107 
2598.459607  	-0.047928 
2599.891266  	-0.048178 
2601.322924  	-0.048251 
2602.754582  	-0.048398 
2604.186240  	-0.048384 
2605.617898  	-0.047830 
2607.049556  	-0.047885 
2608.481215  	-0.048030 
2609.912873  	-0.047897 
2611.344531  	-0.048183 
2612.776189  	-0.048313 
2614.207847  	-0.048424 
2615.639506  	-0.048550 
2617.071164  	-0.048291 
2618.502822  	-0.048236 
2619.934480  	-0.047925 
2621.366138  	-0.047478 
2622.797797  	-0.047760 
2624.229455  	-0.047931 
2625.661113  	-0.047948 
2627.092771  	-0.048106 
2628.524429  	-0.047955 
2629.956087  	-0.047896 
2631.387746  	-0.047728 
2632.819404  	-0.047470 
2634.251062  	-0.047614 
2635.682720  	-0.047518 
2637.114378  	-0.047486 
2638.546037  	-0.047613 
2639.977695  	-0.047229 
2641.409353  	-0.047283 
2642.841011  	-0.047609 
2644.272669  	-0.047347 
2645.704328  	-0.047247 
2647.135986  	-0.047238 
2648.567644  	-0.047176 
2649.999302  	-0.047294 
2651.430960  	-0.047128 
2652.862618  	-0.047085 
2654.294277  	-0.047160 
2655.725935  	-0.046916 
2657.157593  	-0.046920 
2658.589251  	-0.046804 
2660.020909  	-0.046346 
2661.452568  	-0.046185 
2662.884226  	-0.046011 
2664.315884  	-0.045891 
2665.747542  	-0.045957 
2667.179200  	-0.045769 
2668.610858  	-0.045661 
2670.042517  	-0.045602 
2671.474175  	-0.045407 
2672.905833  	-0.045332 
2674.337491  	-0.045119 
2675.769149  	-0.045004 
2677.200808  	-0.045057 
2678.632466  	-0.044852 
2680.064124  	-0.044772 
2681.495782  	-0.044543 
2682.927440  	-0.044048 
2684.359099  	-0.044010 
2685.790757  	-0.043847 
2687.222415  	-0.043441 
2688.654073  	-0.043406 
2690.085731  	-0.043222 
2691.517389  	-0.042825 
2692.949048  	-0.042438 
2694.380706  	-0.042054 
2695.812364  	-0.041969 
2697.244022  	-0.041804 
2698.675680  	-0.041533 
2700.107339  	-0.041442 
2701.538997  	-0.041135 
2702.970655  	-0.040931 
2704.402313  	-0.040859 
2705.833971  	-0.040528 
2707.265630  	-0.040459 
2708.697288  	-0.040417 
2710.128946  	-0.040093 
2711.560604  	-0.039903 
2712.992262  	-0.039677 
2714.423920  	-0.039577 
2715.855579  	-0.039502 
2717.287237  	-0.039005 
2718.718895  	-0.038738 
2720.150553  	-0.038587 
2721.582211  	-0.038166 
2723.013870  	-0.038018 
2724.445528  	-0.037777 
2725.877186  	-0.037254 
2727.308844  	-0.036893 
2728.740502  	-0.036613 
2730.172160  	-0.036512 
2731.603819  	-0.036280 
2733.035477  	-0.035794 
2734.467135  	-0.035616 
2735.898793  	-0.035388 
2737.330451  	-0.035092 
2738.762110  	-0.035027 
2740.193768  	-0.034719 
2741.625426  	-0.034558 
2743.057084  	-0.034689 
2744.488742  	-0.034566 
2745.920401  	-0.034487 
2747.352059  	-0.034372 
2748.783717  	-0.034180 
2750.215375  	-0.034219 
2751.647033  	-0.034112 
2753.078691  	-0.034060 
2754.510350  	-0.034107 
2755.942008  	-0.033847 
2757.373666  	-0.033758 
2758.805324  	-0.033614 
2760.236982  	-0.033220 
2761.668641  	-0.033230 
2763.100299  	-0.033164 
2764.531957  	-0.032913 
2765.963615  	-0.032968 
2767.395273  	-0.032788 
2768.826931  	-0.032303 
2770.258590  	-0.031814 
2771.690248  	-0.031340 
2773.121906  	-0.031069 
2774.553564  	-0.030687 
2775.985222  	-0.030107 
2777.416881  	-0.029505 
2778.848539  	-0.028710 
2780.280197  	-0.027981 
2781.711855  	-0.027165 
2783.143513  	-0.025924 
2784.575172  	-0.024706 
2786.006830  	-0.023527 
2787.438488  	-0.022226 
2788.870146  	-0.020860 
2790.301804  	-0.019375 
2791.733462  	-0.017975 
2793.165121  	-0.016516 
2794.596779  	-0.015264 
2796.028437  	-0.014884 
2797.460095  	-0.014799 
2798.891753  	-0.014864 
2800.323412  	-0.015498 
2801.755070  	-0.016198 
2803.186728  	-0.017046 
2804.618386  	-0.018093 
2806.050044  	-0.018981 
2807.481703  	-0.020062 
2808.913361  	-0.020994 
2810.345019  	-0.021568 
2811.776677  	-0.022154 
2813.208335  	-0.022266 
2814.639993  	-0.022163 
2816.071652  	-0.022031 
2817.503310  	-0.021183 
2818.934968  	-0.020149 
2820.366626  	-0.018971 
2821.798284  	-0.017162 
2823.229943  	-0.015276 
2824.661601  	-0.013147 
2826.093259  	-0.010668 
2827.524917  	-0.007964 
2828.956575  	-0.004388 
2830.388233  	-0.000458 
2831.819892  	0.003353 
2833.251550  	0.007648 
2834.683208  	0.012389 
2836.114866  	0.017743 
2837.546524  	0.023662 
2838.978183  	0.029447 
2840.409841  	0.035446 
2841.841499  	0.042038 
2843.273157  	0.049231 
2844.704815  	0.057695 
2846.136474  	0.067867 
2847.568132  	0.078782 
2848.999790  	0.087419 
2850.431448  	0.091051 
2851.863106  	0.090347 
2853.294764  	0.087719 
2854.726423  	0.084974 
2856.158081  	0.083100 
2857.589739  	0.081708 
2859.021397  	0.080190 
2860.453055  	0.078453 
2861.884714  	0.076285 
2863.316372  	0.073911 
2864.748030  	0.071340 
2866.179688  	0.068482 
2867.611346  	0.065899 
2869.043005  	0.063156 
2870.474663  	0.059748 
2871.906321  	0.056074 
2873.337979  	0.051829 
2874.769637  	0.047039 
2876.201295  	0.042115 
2877.632954  	0.036922 
2879.064612  	0.032068 
2880.496270  	0.027925 
2881.927928  	0.024331 
2883.359586  	0.021650 
2884.791245  	0.019732 
2886.222903  	0.018336 
2887.654561  	0.017536 
2889.086219  	0.017318 
2890.517877  	0.017870 
2891.949535  	0.018675 
2893.381194  	0.019389 
2894.812852  	0.020503 
2896.244510  	0.021625 
2897.676168  	0.022607 
2899.107826  	0.023903 
2900.539485  	0.025171 
2901.971143  	0.026533 
2903.402801  	0.028330 
2904.834459  	0.030329 
2906.266117  	0.032577 
2907.697776  	0.035084 
2909.129434  	0.038164 
2910.561092  	0.042195 
2911.992750  	0.046921 
2913.424408  	0.052890 
2914.856066  	0.060092 
2916.287725  	0.066096 
2917.719383  	0.068870 
2919.151041  	0.068577 
2920.582699  	0.066141 
2922.014357  	0.062502 
2923.446016  	0.058649 
2924.877674  	0.055626 
2926.309332  	0.053685 
2927.740990  	0.052432 
2929.172648  	0.052067 
2930.604306  	0.052516 
2932.035965  	0.053314 
2933.467623  	0.054370 
2934.899281  	0.055463 
2936.330939  	0.056386 
2937.762597  	0.056898 
2939.194256  	0.056898 
2940.625914  	0.056780 
2942.057572  	0.056201 
2943.489230  	0.054873 
2944.920888  	0.053365 
2946.352547  	0.051476 
2947.784205  	0.049270 
2949.215863  	0.047288 
2950.647521  	0.044914 
2952.079179  	0.042217 
2953.510837  	0.039872 
2954.942496  	0.037298 
2956.374154  	0.034188 
2957.805812  	0.030923 
2959.237470  	0.027499 
2960.669128  	0.023653 
2962.100787  	0.019436 
2963.532445  	0.015385 
2964.964103  	0.011341 
2966.395761  	0.006936 
2967.827419  	0.002707 
2969.259078  	-0.001339 
2970.690736  	-0.005355 
2972.122394  	-0.009061 
2973.554052  	-0.012674 
2974.985710  	-0.016114 
2976.417368  	-0.019258 
2977.849027  	-0.022141 
2979.280685  	-0.024482 
2980.712343  	-0.026808 
2982.144001  	-0.029158 
2983.575659  	-0.030771 
2985.007318  	-0.032112 
2986.438976  	-0.033460 
2987.870634  	-0.034616 
2989.302292  	-0.035807 
2990.733950  	-0.036818 
2992.165608  	-0.037645 
2993.597267  	-0.038208 
2995.028925  	-0.038370 
2996.460583  	-0.038768 
2997.892241  	-0.039055 
2999.323899  	-0.038962 
3000.755558  	-0.039136 
3002.187216  	-0.039144 
3003.618874  	-0.039142 
3005.050532  	-0.039520 
3006.482190  	-0.039429 
3007.913849  	-0.039283 
3009.345507  	-0.039383 
3010.777165  	-0.039074 
3012.208823  	-0.039024 
3013.640481  	-0.039402 
3015.072139  	-0.039660 
3016.503798  	-0.039834 
3017.935456  	-0.039709 
3019.367114  	-0.039634 
3020.798772  	-0.039713 
3022.230430  	-0.039244 
3023.662089  	-0.038563 
3025.093747  	-0.037954 
3026.525405  	-0.037218 
3027.957063  	-0.036488 
3029.388721  	-0.035629 
3030.820380  	-0.034746 
3032.252038  	-0.033888 
3033.683696  	-0.033166 
3035.115354  	-0.033082 
3036.547012  	-0.032935 
3037.978670  	-0.032424 
3039.410329  	-0.032263 
3040.841987  	-0.032027 
3042.273645  	-0.031813 
3043.705303  	-0.031930 
3045.136961  	-0.031827 
3046.568620  	-0.032007 
3048.000278  	-0.032432 
3049.431936  	-0.032704 
3050.863594  	-0.033477 
3052.295252  	-0.033863 
3053.726910  	-0.033430 
3055.158569  	-0.033575 
3056.590227  	-0.034060 
3058.021885  	-0.034232 
3059.453543  	-0.034266 
3060.885201  	-0.034218 
3062.316860  	-0.034530 
3063.748518  	-0.035003 
3065.180176  	-0.035374 
3066.611834  	-0.035976 
3068.043492  	-0.036438 
3069.475151  	-0.036967 
3070.906809  	-0.037795 
3072.338467  	-0.038268 
3073.770125  	-0.038756 
3075.201783  	-0.039369 
3076.633441  	-0.039665 
3078.065100  	-0.040130 
3079.496758  	-0.040652 
3080.928416  	-0.040913 
3082.360074  	-0.041194 
3083.791732  	-0.041469 
3085.223391  	-0.041827 
3086.655049  	-0.042094 
3088.086707  	-0.042136 
3089.518365  	-0.042257 
3090.950023  	-0.042253 
3092.381682  	-0.042443 
3093.813340  	-0.042875 
3095.244998  	-0.042605 
3096.676656  	-0.042205 
3098.108314  	-0.042176 
3099.539972  	-0.041751 
3100.971631  	-0.041299 
3102.403289  	-0.041154 
3103.834947  	-0.040956 
3105.266605  	-0.040764 
3106.698263  	-0.040468 
3108.129922  	-0.040040 
3109.561580  	-0.039449 
3110.993238  	-0.038690 
3112.424896  	-0.038126 
3113.856554  	-0.037576 
3115.288212  	-0.037125 
3116.719871  	-0.037053 
3118.151529  	-0.036857 
3119.583187  	-0.036612 
3121.014845  	-0.036372 
3122.446503  	-0.035996 
3123.878162  	-0.036025 
3125.309820  	-0.036081 
3126.741478  	-0.036097 
3128.173136  	-0.036753 
3129.604794  	-0.037296 
3131.036453  	-0.037744 
3132.468111  	-0.038846 
3133.899769  	-0.039883 
3135.331427  	-0.040602 
3136.763085  	-0.041267 
3138.194743  	-0.041924 
3139.626402  	-0.042748 
3141.058060  	-0.043280 
3142.489718  	-0.043591 
3143.921376  	-0.044048 
3145.353034  	-0.044351 
3146.784693  	-0.044664 
3148.216351  	-0.044810 
3149.648009  	-0.044764 
3151.079667  	-0.045036 
3152.511325  	-0.044990 
3153.942983  	-0.044864 
3155.374642  	-0.045216 
3156.806300  	-0.045083 
3158.237958  	-0.044877 
3159.669616  	-0.045076 
3161.101274  	-0.044901 
3162.532933  	-0.044564 
3163.964591  	-0.044072 
3165.396249  	-0.043643 
3166.827907  	-0.043627 
3168.259565  	-0.043063 
3169.691224  	-0.042587 
3171.122882  	-0.042749 
3172.554540  	-0.042165 
3173.986198  	-0.041379 
3175.417856  	-0.040989 
3176.849514  	-0.040321 
3178.281173  	-0.039648 
3179.712831  	-0.038650 
3181.144489  	-0.037560 
3182.576147  	-0.037201 
3184.007805  	-0.036591 
3185.439464  	-0.035571 
3186.871122  	-0.034739 
3188.302780  	-0.033957 
3189.734438  	-0.033747 
3191.166096  	-0.033814 
3192.597755  	-0.033751 
3194.029413  	-0.034203 
3195.461071  	-0.034709 
3196.892729  	-0.035133 
3198.324387  	-0.035744 
3199.756045  	-0.035865 
3201.187704  	-0.035967 
3202.619362  	-0.036420 
3204.051020  	-0.036636 
3205.482678  	-0.036763 
3206.914336  	-0.036675 
3208.345995  	-0.036452 
3209.777653  	-0.036591 
3211.209311  	-0.036675 
3212.640969  	-0.036548 
3214.072627  	-0.036326 
3215.504285  	-0.035981 
3216.935944  	-0.035676 
3218.367602  	-0.035043 
3219.799260  	-0.034204 
3221.230918  	-0.033659 
3222.662576  	-0.033180 
3224.094235  	-0.032754 
3225.525893  	-0.032096 
3226.957551  	-0.031194 
3228.389209  	-0.030754 
3229.820867  	-0.030215 
3231.252526  	-0.029323 
3232.684184  	-0.028698 
3234.115842  	-0.027934 
3235.547500  	-0.027124 
3236.979158  	-0.026493 
3238.410816  	-0.025627 
3239.842475  	-0.024917 
3241.274133  	-0.024278 
3242.705791  	-0.023379 
3244.137449  	-0.022599 
3245.569107  	-0.021655 
3247.000766  	-0.020549 
3248.432424  	-0.019625 
3249.864082  	-0.018717 
3251.295740  	-0.018062 
3252.727398  	-0.017489 
3254.159057  	-0.016678 
3255.590715  	-0.015825 
3257.022373  	-0.014684 
3258.454031  	-0.013613 
3259.885689  	-0.012913 
3261.317347  	-0.011900 
3262.749006  	-0.010724 
3264.180664  	-0.009410 
3265.612322  	-0.007884 
3267.043980  	-0.007011 
3268.475638  	-0.006343 
3269.907297  	-0.005043 
3271.338955  	-0.003540 
3272.770613  	-0.002137 
3274.202271  	-0.000991 
3275.633929  	0.000283 
3277.065587  	0.002062 
3278.497246  	0.003698 
3279.928904  	0.005342 
3281.360562  	0.007160 
3282.792220  	0.008656 
3284.223878  	0.010432 
3285.655537  	0.012583 
3287.087195  	0.014563 
3288.518853  	0.016535 
3289.950511  	0.018237 
3291.382169  	0.019915 
3292.813828  	0.022020 
3294.245486  	0.023844 
3295.677144  	0.025578 
3297.108802  	0.027487 
3298.540460  	0.028764 
3299.972118  	0.029678 
3301.403777  	0.030732 
3302.835435  	0.031532 
3304.267093  	0.031937 
3305.698751  	0.032129 
3307.130409  	0.032218 
3308.562068  	0.032008 
3309.993726  	0.031643 
3311.425384  	0.031645 
3312.857042  	0.031785 
3314.288700  	0.031954 
3315.720359  	0.032262 
3317.152017  	0.032381 
3318.583675  	0.032513 
3320.015333  	0.032719 
3321.446991  	0.032599 
3322.878649  	0.032202 
3324.310308  	0.031527 
3325.741966  	0.030925 
3327.173624  	0.030702 
3328.605282  	0.030186 
3330.036940  	0.029227 
3331.468599  	0.028136 
3332.900257  	0.026952 
3334.331915  	0.025693 
3335.763573  	0.023958 
3337.195231  	0.021833 
3338.626889  	0.019766 
3340.058548  	0.017610 
3341.490206  	0.015494 
3342.921864  	0.013191 
3344.353522  	0.010450 
3345.785180  	0.007898 
3347.216839  	0.005417 
3348.648497  	0.002975 
3350.080155  	0.000836 
3351.511813  	-0.001746 
3352.943471  	-0.004599 
3354.375130  	-0.007170 
3355.806788  	-0.009638 
3357.238446  	-0.011557 
3358.670104  	-0.013329 
3360.101762  	-0.015629 
3361.533420  	-0.017724 
3362.965079  	-0.019431 
3364.396737  	-0.021066 
3365.828395  	-0.022716 
3367.260053  	-0.024395 
3368.691711  	-0.025707 
3370.123370  	-0.026980 
3371.555028  	-0.028365 
3372.986686  	-0.029320 
3374.418344  	-0.030272 
3375.850002  	-0.031204 
3377.281660  	-0.031841 
3378.713319  	-0.032744 
3380.144977  	-0.033556 
3381.576635  	-0.034046 
3383.008293  	-0.034460 
3384.439951  	-0.034744 
3385.871610  	-0.035548 
3387.303268  	-0.036394 
3388.734926  	-0.036594 
3390.166584  	-0.037174 
3391.598242  	-0.037776 
3393.029901  	-0.037901 
3394.461559  	-0.038311 
3395.893217  	-0.038496 
3397.324875  	-0.038658 
3398.756533  	-0.039390 
3400.188191  	-0.039802 
3401.619850  	-0.040043 
3403.051508  	-0.040376 
3404.483166  	-0.040471 
3405.914824  	-0.040776 
3407.346482  	-0.041243 
3408.778141  	-0.041773 
3410.209799  	-0.042311 
3411.641457  	-0.042427 
3413.073115  	-0.042675 
3414.504773  	-0.043108 
3415.936432  	-0.043365 
3417.368090  	-0.043776 
3418.799748  	-0.043773 
3420.231406  	-0.043470 
3421.663064  	-0.043704 
3423.094722  	-0.043958 
3424.526381  	-0.044254 
3425.958039  	-0.044575 
3427.389697  	-0.044522 
3428.821355  	-0.044831 
3430.253013  	-0.045337 
3431.684672  	-0.045518 
3433.116330  	-0.045593 
3434.547988  	-0.045325 
3435.979646  	-0.045268 
3437.411304  	-0.045601 
3438.842962  	-0.045506 
3440.274621  	-0.045336 
3441.706279  	-0.045211 
3443.137937  	-0.045253 
3444.569595  	-0.045848 
3446.001253  	-0.046086 
3447.432912  	-0.046344 
3448.864570  	-0.047132 
3450.296228  	-0.047323 
3451.727886  	-0.047298 
3453.159544  	-0.047186 
3454.591203  	-0.046818 
3456.022861  	-0.047215 
3457.454519  	-0.047531 
3458.886177  	-0.047197 
3460.317835  	-0.047366 
3461.749493  	-0.047504 
3463.181152  	-0.047465 
3464.612810  	-0.047861 
3466.044468  	-0.048063 
3467.476126  	-0.048064 
3468.907784  	-0.047977 
3470.339443  	-0.047749 
3471.771101  	-0.047649 
3473.202759  	-0.047399 
3474.634417  	-0.047488 
3476.066075  	-0.048108 
3477.497734  	-0.048130 
3478.929392  	-0.047725 
3480.361050  	-0.047446 
3481.792708  	-0.047452 
3483.224366  	-0.047982 
3484.656024  	-0.048288 
3486.087683  	-0.048278 
3487.519341  	-0.048275 
3488.950999  	-0.047971 
3490.382657  	-0.047993 
3491.814315  	-0.048335 
3493.245974  	-0.048314 
3494.677632  	-0.048321 
3496.109290  	-0.048331 
3497.540948  	-0.048223 
3498.972606  	-0.048148 
3500.404264  	-0.047984 
3501.835923  	-0.048206 
3503.267581  	-0.048345 
3504.699239  	-0.047911 
3506.130897  	-0.048136 
3507.562555  	-0.048593 
3508.994214  	-0.048479 
3510.425872  	-0.048361 
3511.857530  	-0.048364 
3513.289188  	-0.048612 
3514.720846  	-0.048804 
3516.152505  	-0.048451 
3517.584163  	-0.048468 
3519.015821  	-0.048828 
3520.447479  	-0.048730 
3521.879137  	-0.048450 
3523.310795  	-0.048281 
3524.742454  	-0.048587 
3526.174112  	-0.048884 
3527.605770  	-0.048720 
3529.037428  	-0.049003 
3530.469086  	-0.049283 
3531.900745  	-0.049229 
3533.332403  	-0.049536 
3534.764061  	-0.049488 
3536.195719  	-0.049419 
3537.627377  	-0.049891 
3539.059035  	-0.049788 
3540.490694  	-0.049793 
3541.922352  	-0.050123 
3543.354010  	-0.049683 
3544.785668  	-0.049397 
3546.217326  	-0.049845 
3547.648985  	-0.050454 
3549.080643  	-0.050895 
3550.512301  	-0.050501 
3551.943959  	-0.050134 
3553.375617  	-0.050706 
3554.807276  	-0.051103 
3556.238934  	-0.051111 
3557.670592  	-0.050909 
3559.102250  	-0.050755 
3560.533908  	-0.051348 
3561.965566  	-0.051879 
3563.397225  	-0.051596 
3564.828883  	-0.050846 
3566.260541  	-0.050292 
3567.692199  	-0.051181 
3569.123857  	-0.052115 
3570.555516  	-0.052008 
3571.987174  	-0.052090 
3573.418832  	-0.051826 
3574.850490  	-0.051265 
3576.282148  	-0.051415 
3577.713807  	-0.051913 
3579.145465  	-0.052569 
3580.577123  	-0.052893 
3582.008781  	-0.052610 
3583.440439  	-0.052728 
3584.872097  	-0.052585 
3586.303756  	-0.051868 
3587.735414  	-0.052360 
3589.167072  	-0.053505 
3590.598730  	-0.053522 
3592.030388  	-0.053020 
3593.462047  	-0.052261 
3594.893705  	-0.051995 
3596.325363  	-0.052461 
3597.757021  	-0.052720 
3599.188679  	-0.052588 
3600.620337  	-0.052665 
3602.051996  	-0.053334 
3603.483654  	-0.053663 
3604.915312  	-0.053485 
3606.346970  	-0.053423 
3607.778628  	-0.053195 
3609.210287  	-0.053601 
3610.641945  	-0.054279 
3612.073603  	-0.053503 
3613.505261  	-0.053452 
3614.936919  	-0.054674 
3616.368578  	-0.053987 
3617.800236  	-0.052872 
3619.231894  	-0.053265 
3620.663552  	-0.054131 
3622.095210  	-0.054553 
3623.526868  	-0.054414 
3624.958527  	-0.054099 
3626.390185  	-0.053480 
3627.821843  	-0.052051 
3629.253501  	-0.052597 
3630.685159  	-0.055359 
3632.116818  	-0.054896 
3633.548476  	-0.054523 
3634.980134  	-0.055062 
3636.411792  	-0.054924 
3637.843450  	-0.054961 
3639.275109  	-0.055307 
3640.706767  	-0.054973 
3642.138425  	-0.054569 
3643.570083  	-0.054848 
3645.001741  	-0.055143 
3646.433399  	-0.054630 
3647.865058  	-0.053877 
3649.296716  	-0.053792 
3650.728374  	-0.054470 
3652.160032  	-0.056427 
3653.591690  	-0.056589 
3655.023349  	-0.055355 
3656.455007  	-0.055554 
3657.886665  	-0.056422 
3659.318323  	-0.055892 
3660.749981  	-0.056087 
3662.181639  	-0.056496 
3663.613298  	-0.056384 
3665.044956  	-0.056799 
3666.476614  	-0.056858 
3667.908272  	-0.056026 
3669.339930  	-0.055394 
3670.771589  	-0.056342 
3672.203247  	-0.057033 
3673.634905  	-0.055621 
3675.066563  	-0.054952 
3676.498221  	-0.057770 
3677.929880  	-0.057175 
3679.361538  	-0.056411 
3680.793196  	-0.057539 
3682.224854  	-0.057439 
3683.656512  	-0.056985 
3685.088170  	-0.057182 
3686.519829  	-0.056585 
3687.951487  	-0.056382 
3689.383145  	-0.057349 
3690.814803  	-0.057616 
3692.246461  	-0.058099 
3693.678120  	-0.058120 
3695.109778  	-0.057249 
3696.541436  	-0.056961 
3697.973094  	-0.057222 
3699.404752  	-0.056836 
3700.836411  	-0.056335 
3702.268069  	-0.057022 
3703.699727  	-0.057707 
3705.131385  	-0.057380 
3706.563043  	-0.057315 
3707.994701  	-0.057232 
3709.426360  	-0.056600 
3710.858018  	-0.056513 
3712.289676  	-0.056995 
3713.721334  	-0.058079 
3715.152992  	-0.058933 
3716.584651  	-0.058187 
3718.016309  	-0.057392 
3719.447967  	-0.057586 
3720.879625  	-0.057000 
3722.311283  	-0.056407 
3723.742941  	-0.056974 
3725.174600  	-0.056979 
3726.606258  	-0.056863 
3728.037916  	-0.057398 
3729.469574  	-0.057245 
3730.901232  	-0.056909 
3732.332891  	-0.057390 
3733.764549  	-0.057067 
3735.196207  	-0.055850 
3736.627865  	-0.057624 
3738.059523  	-0.059125 
3739.491182  	-0.058105 
3740.922840  	-0.058237 
3742.354498  	-0.058219 
3743.786156  	-0.056580 
3745.217814  	-0.058750 
3746.649472  	-0.060322 
3748.081131  	-0.058001 
3749.512789  	-0.057267 
3750.944447  	-0.057940 
3752.376105  	-0.057436 
3753.807763  	-0.058633 
3755.239422  	-0.059016 
3756.671080  	-0.058604 
3758.102738  	-0.058986 
3759.534396  	-0.058828 
3760.966054  	-0.058835 
3762.397712  	-0.059169 
3763.829371  	-0.058300 
3765.261029  	-0.057821 
3766.692687  	-0.058550 
3768.124345  	-0.058431 
3769.556003  	-0.058154 
3770.987662  	-0.058620 
3772.419320  	-0.058824 
3773.850978  	-0.058619 
3775.282636  	-0.058632 
3776.714294  	-0.058819 
3778.145953  	-0.058337 
3779.577611  	-0.057928 
3781.009269  	-0.058637 
3782.440927  	-0.058595 
3783.872585  	-0.058039 
3785.304243  	-0.058152 
3786.735902  	-0.058257 
3788.167560  	-0.058317 
3789.599218  	-0.058467 
3791.030876  	-0.058233 
3792.462534  	-0.058221 
3793.894193  	-0.058302 
3795.325851  	-0.058008 
3796.757509  	-0.058106 
3798.189167  	-0.058166 
3799.620825  	-0.057218 
3801.052484  	-0.056525 
3802.484142  	-0.058312 
3803.915800  	-0.059135 
3805.347458  	-0.057877 
3806.779116  	-0.057632 
3808.210774  	-0.059156 
3809.642433  	-0.058690 
3811.074091  	-0.058004 
3812.505749  	-0.058317 
3813.937407  	-0.057764 
3815.369065  	-0.057123 
3816.800724  	-0.058642 
3818.232382  	-0.058423 
3819.664040  	-0.056501 
3821.095698  	-0.056772 
3822.527356  	-0.059258 
3823.959014  	-0.058310 
3825.390673  	-0.057437 
3826.822331  	-0.058370 
3828.253989  	-0.058380 
3829.685647  	-0.057222 
3831.117305  	-0.057269 
3832.548964  	-0.057947 
3833.980622  	-0.057762 
3835.412280  	-0.057410 
3836.843938  	-0.057209 
3838.275596  	-0.057050 
3839.707255  	-0.057132 
3841.138913  	-0.057482 
3842.570571  	-0.057919 
3844.002229  	-0.058315 
3845.433887  	-0.058537 
3846.865545  	-0.058147 
3848.297204  	-0.057543 
3849.728862  	-0.057425 
3851.160520  	-0.056864 
3852.592178  	-0.055671 
3854.023836  	-0.057393 
3855.455495  	-0.059323 
3856.887153  	-0.058611 
3858.318811  	-0.058391 
3859.750469  	-0.058167 
3861.182127  	-0.057688 
3862.613786  	-0.057499 
3864.045444  	-0.057075 
3865.477102  	-0.057441 
3866.908760  	-0.058265 
3868.340418  	-0.057272 
3869.772076  	-0.056514 
3871.203735  	-0.058228 
3872.635393  	-0.058102 
3874.067051  	-0.057568 
3875.498709  	-0.058672 
3876.930367  	-0.058494 
3878.362026  	-0.057275 
3879.793684  	-0.057140 
3881.225342  	-0.058057 
3882.657000  	-0.057959 
3884.088658  	-0.056818 
3885.520316  	-0.056131 
3886.951975  	-0.057814 
3888.383633  	-0.058503 
3889.815291  	-0.057498 
3891.246949  	-0.057440 
3892.678607  	-0.058535 
3894.110266  	-0.058427 
3895.541924  	-0.058055 
3896.973582  	-0.057577 
3898.405240  	-0.056857 
3899.836898  	-0.057121 
3901.268557  	-0.057516 
3902.700215  	-0.056897 
3904.131873  	-0.057040 
3905.563531  	-0.058011 
3906.995189  	-0.058363 
3908.426847  	-0.058361 
3909.858506  	-0.058146 
3911.290164  	-0.058042 
3912.721822  	-0.058381 
3914.153480  	-0.058404 
3915.585138  	-0.057862 
3917.016797  	-0.057421 
3918.448455  	-0.057326 
3919.880113  	-0.057371 
3921.311771  	-0.057477 
3922.743429  	-0.057295 
3924.175088  	-0.057105 
3925.606746  	-0.057585 
3927.038404  	-0.057911 
3928.470062  	-0.057605 
3929.901720  	-0.057345 
3931.333378  	-0.057107 
3932.765037  	-0.057043 
3934.196695  	-0.057549 
3935.628353  	-0.057777 
3937.060011  	-0.057734 
3938.491669  	-0.057770 
3939.923328  	-0.057348 
3941.354986  	-0.056946 
3942.786644  	-0.057303 
3944.218302  	-0.057625 
3945.649960  	-0.057335 
3947.081618  	-0.057098 
3948.513277  	-0.057429 
3949.944935  	-0.057843 
3951.376593  	-0.057617 
3952.808251  	-0.057360 
3954.239909  	-0.057401 
3955.671568  	-0.057381 
3957.103226  	-0.057558 
3958.534884  	-0.057716 
3959.966542  	-0.057416 
3961.398200  	-0.057234 
3962.829859  	-0.057355 
3964.261517  	-0.057359 
3965.693175  	-0.057252 
3967.124833  	-0.057288 
3968.556491  	-0.057420 
3969.988149  	-0.057204 
3971.419808  	-0.056986 
3972.851466  	-0.057250 
3974.283124  	-0.057225 
3975.714782  	-0.056939 
3977.146440  	-0.057061 
3978.578099  	-0.057184 
3980.009757  	-0.057293 
3981.441415  	-0.057346 
3982.873073  	-0.056883 
3984.304731  	-0.056642 
3985.736389  	-0.057036 
3987.168048  	-0.057287 
3988.599706  	-0.057051 
3990.031364  	-0.056751 
3991.463022  	-0.056890 
3992.894680  	-0.057026 
3994.326339  	-0.056863 
3995.757997  	-0.057098 
3997.189655  	-0.057282 
3998.621313  	-0.056965 
4000.052971  	-0.057028 