##TITLE=No Description
##DATA TYPE=INFRARED SPECTRUM
##XUNITS=1/CM
##YUNITS=Abs
399.432634  	0.695711 
400.864292  	0.740280 
402.295950  	0.770913 
403.727608  	0.803325 
405.159267  	0.831698 
406.590925  	0.798074 
408.022583  	0.786512 
409.454241  	0.828758 
410.885899  	0.824815 
412.317558  	0.774842 
413.749216  	0.726033 
415.180874  	0.720512 
416.612532  	0.729770 
418.044190  	0.700804 
419.475848  	0.675142 
420.907507  	0.749957 
422.339165  	0.795591 
423.770823  	0.822794 
425.202481  	0.856880 
426.634139  	0.867871 
428.065798  	0.822704 
429.497456  	0.778688 
430.929114  	0.772910 
432.360772  	0.757151 
433.792430  	0.746965 
435.224089  	0.786287 
436.655747  	0.826537 
438.087405  	0.821335 
439.519063  	0.803852 
440.950721  	0.774533 
442.382379  	0.762296 
443.814038  	0.776787 
445.245696  	0.797647 
446.677354  	0.830738 
448.109012  	0.829116 
449.540670  	0.804961 
450.972329  	0.819377 
452.403987  	0.837234 
453.835645  	0.839194 
455.267303  	0.866146 
456.698961  	0.883402 
458.130619  	0.863635 
459.562278  	0.834091 
460.993936  	0.808423 
462.425594  	0.823238 
463.857252  	0.844509 
465.288910  	0.829465 
466.720569  	0.823491 
468.152227  	0.816616 
469.583885  	0.815695 
471.015543  	0.848287 
472.447201  	0.841764 
473.878860  	0.811232 
475.310518  	0.830301 
476.742176  	0.844729 
478.173834  	0.833885 
479.605492  	0.828590 
481.037150  	0.824357 
482.468809  	0.835440 
483.900467  	0.852395 
485.332125  	0.851451 
486.763783  	0.872788 
488.195441  	0.895044 
489.627100  	0.886303 
491.058758  	0.886788 
492.490416  	0.894277 
493.922074  	0.895872 
495.353732  	0.912713 
496.785391  	0.912243 
498.217049  	0.890358 
499.648707  	0.889045 
501.080365  	0.889207 
502.512023  	0.875759 
503.943681  	0.876318 
505.375340  	0.884272 
506.806998  	0.882262 
508.238656  	0.879054 
509.670314  	0.891117 
511.101972  	0.906164 
512.533631  	0.893742 
513.965289  	0.879936 
515.396947  	0.892554 
516.828605  	0.908955 
518.260263  	0.916788 
519.691921  	0.918850 
521.123580  	0.902832 
522.555238  	0.896037 
523.986896  	0.914997 
525.418554  	0.925382 
526.850212  	0.911264 
528.281871  	0.903786 
529.713529  	0.907402 
531.145187  	0.909644 
532.576845  	0.913420 
534.008503  	0.922340 
535.440162  	0.926314 
536.871820  	0.929404 
538.303478  	0.941225 
539.735136  	0.945160 
541.166794  	0.940877 
542.598452  	0.947315 
544.030111  	0.951247 
545.461769  	0.942510 
546.893427  	0.937919 
548.325085  	0.935170 
549.756743  	0.928734 
551.188402  	0.925665 
552.620060  	0.925033 
554.051718  	0.921029 
555.483376  	0.903963 
556.915034  	0.877145 
558.346692  	0.860510 
559.778351  	0.855371 
561.210009  	0.847998 
562.641667  	0.837467 
564.073325  	0.827803 
565.504983  	0.813006 
566.936642  	0.793090 
568.368300  	0.784338 
569.799958  	0.795079 
571.231616  	0.811711 
572.663274  	0.823784 
574.094933  	0.829775 
575.526591  	0.827913 
576.958249  	0.827907 
578.389907  	0.833365 
579.821565  	0.831793 
581.253223  	0.829259 
582.684882  	0.836042 
584.116540  	0.842388 
585.548198  	0.843752 
586.979856  	0.840534 
588.411514  	0.836121 
589.843173  	0.838953 
591.274831  	0.842145 
592.706489  	0.840952 
594.138147  	0.847088 
595.569805  	0.852230 
597.001464  	0.847653 
598.433122  	0.848980 
599.864780  	0.856840 
601.296438  	0.857369 
602.728096  	0.853651 
604.159754  	0.852979 
605.591413  	0.855618 
607.023071  	0.858166 
608.454729  	0.856361 
609.886387  	0.853802 
611.318045  	0.854956 
612.749704  	0.856764 
614.181362  	0.858002 
615.613020  	0.858178 
617.044678  	0.855826 
618.476336  	0.856749 
619.907994  	0.863252 
621.339653  	0.866426 
622.771311  	0.864713 
624.202969  	0.865382 
625.634627  	0.867425 
627.066285  	0.868863 
628.497944  	0.872634 
629.929602  	0.874863 
631.361260  	0.870158 
632.792918  	0.864039 
634.224576  	0.864315 
635.656235  	0.869194 
637.087893  	0.871252 
638.519551  	0.869125 
639.951209  	0.866043 
641.382867  	0.863653 
642.814525  	0.864606 
644.246184  	0.868748 
645.677842  	0.870703 
647.109500  	0.869818 
648.541158  	0.869467 
649.972816  	0.870993 
651.404475  	0.874052 
652.836133  	0.875485 
654.267791  	0.874811 
655.699449  	0.877333 
657.131107  	0.881847 
658.562766  	0.881587 
659.994424  	0.878249 
661.426082  	0.878074 
662.857740  	0.878866 
664.289398  	0.879813 
665.721056  	0.884184 
667.152715  	0.883928 
668.584373  	0.870118 
670.016031  	0.876116 
671.447689  	0.886866 
672.879347  	0.886740 
674.311006  	0.885791 
675.742664  	0.890906 
677.174322  	0.892576 
678.605980  	0.892487 
680.037638  	0.892373 
681.469296  	0.890725 
682.900955  	0.896084 
684.332613  	0.904663 
685.764271  	0.904207 
687.195929  	0.899985 
688.627587  	0.901628 
690.059246  	0.906090 
691.490904  	0.904541 
692.922562  	0.901141 
694.354220  	0.906968 
695.785878  	0.915122 
697.217537  	0.916239 
698.649195  	0.917542 
700.080853  	0.921665 
701.512511  	0.924525 
702.944169  	0.925133 
704.375827  	0.921308 
705.807486  	0.917821 
707.239144  	0.920901 
708.670802  	0.925558 
710.102460  	0.927239 
711.534118  	0.927002 
712.965777  	0.926894 
714.397435  	0.931636 
715.829093  	0.941613 
717.260751  	0.950622 
718.692409  	0.959115 
720.124067  	0.972727 
721.555726  	0.988265 
722.987384  	1.001406 
724.419042  	1.013112 
725.850700  	1.012973 
727.282358  	0.986042 
728.714017  	0.936251 
730.145675  	0.876493 
731.577333  	0.816454 
733.008991  	0.759447 
734.440649  	0.708518 
735.872308  	0.676939 
737.303966  	0.672957 
738.735624  	0.687706 
740.167282  	0.708014 
741.598940  	0.728784 
743.030598  	0.749240 
744.462257  	0.767479 
745.893915  	0.782093 
747.325573  	0.793734 
748.757231  	0.802018 
750.188889  	0.807121 
751.620548  	0.814030 
753.052206  	0.822378 
754.483864  	0.826515 
755.915522  	0.828960 
757.347180  	0.832464 
758.778839  	0.833084 
760.210497  	0.831654 
761.642155  	0.832407 
763.073813  	0.834236 
764.505471  	0.833896 
765.937129  	0.832190 
767.368788  	0.829957 
768.800446  	0.824780 
770.232104  	0.817893 
771.663762  	0.811981 
773.095420  	0.805855 
774.527079  	0.800743 
775.958737  	0.797905 
777.390395  	0.796310 
778.822053  	0.796991 
780.253711  	0.798967 
781.685369  	0.801609 
783.117028  	0.806123 
784.548686  	0.809544 
785.980344  	0.813040 
787.412002  	0.819395 
788.843660  	0.823234 
790.275319  	0.825858 
791.706977  	0.831745 
793.138635  	0.834962 
794.570293  	0.835090 
796.001951  	0.838668 
797.433610  	0.845807 
798.865268  	0.853418 
800.296926  	0.858802 
801.728584  	0.863749 
803.160242  	0.872121 
804.591900  	0.881155 
806.023559  	0.887886 
807.455217  	0.891231 
808.886875  	0.890424 
810.318533  	0.889934 
811.750191  	0.890297 
813.181850  	0.887465 
814.613508  	0.882132 
816.045166  	0.875856 
817.476824  	0.869926 
818.908482  	0.867222 
820.340141  	0.869572 
821.771799  	0.875531 
823.203457  	0.881491 
824.635115  	0.886571 
826.066773  	0.887359 
827.498431  	0.878404 
828.930090  	0.865402 
830.361748  	0.850753 
831.793406  	0.828923 
833.225064  	0.805680 
834.656722  	0.787632 
836.088381  	0.773207 
837.520039  	0.762127 
838.951697  	0.754803 
840.383355  	0.751313 
841.815013  	0.751510 
843.246671  	0.750990 
844.678330  	0.746713 
846.109988  	0.741792 
847.541646  	0.738256 
848.973304  	0.734771 
850.404962  	0.731679 
851.836621  	0.730378 
853.268279  	0.730081 
854.699937  	0.730648 
856.131595  	0.733264 
857.563253  	0.737662 
858.994912  	0.744006 
860.426570  	0.751590 
861.858228  	0.757730 
863.289886  	0.763642 
864.721544  	0.771712 
866.153202  	0.780237 
867.584861  	0.788430 
869.016519  	0.796215 
870.448177  	0.801499 
871.879835  	0.801907 
873.311493  	0.796443 
874.743152  	0.789666 
876.174810  	0.785682 
877.606468  	0.782885 
879.038126  	0.782550 
880.469784  	0.785371 
881.901443  	0.787386 
883.333101  	0.788280 
884.764759  	0.788577 
886.196417  	0.786495 
887.628075  	0.781211 
889.059733  	0.771220 
890.491392  	0.757352 
891.923050  	0.743984 
893.354708  	0.735933 
894.786366  	0.735196 
896.218024  	0.738061 
897.649683  	0.741981 
899.081341  	0.747480 
900.512999  	0.752234 
901.944657  	0.756308 
903.376315  	0.761352 
904.807973  	0.764815 
906.239632  	0.767724 
907.671290  	0.772644 
909.102948  	0.777286 
910.534606  	0.780694 
911.966264  	0.784037 
913.397923  	0.787961 
914.829581  	0.791414 
916.261239  	0.792301 
917.692897  	0.792605 
919.124555  	0.793581 
920.556214  	0.793966 
921.987872  	0.795667 
923.419530  	0.797761 
924.851188  	0.798165 
926.282846  	0.800167 
927.714504  	0.804613 
929.146163  	0.808955 
930.577821  	0.811966 
932.009479  	0.813155 
933.441137  	0.813209 
934.872795  	0.811840 
936.304454  	0.809462 
937.736112  	0.807486 
939.167770  	0.804835 
940.599428  	0.803136 
942.031086  	0.803557 
943.462744  	0.802585 
944.894403  	0.800675 
946.326061  	0.799621 
947.757719  	0.799256 
949.189377  	0.801401 
950.621035  	0.804534 
952.052694  	0.806200 
953.484352  	0.808386 
954.916010  	0.811254 
956.347668  	0.812837 
957.779326  	0.812214 
959.210985  	0.811052 
960.642643  	0.812024 
962.074301  	0.813108 
963.505959  	0.813743 
964.937617  	0.815687 
966.369275  	0.816246 
967.800934  	0.816172 
969.232592  	0.817625 
970.664250  	0.818126 
972.095908  	0.819337 
973.527566  	0.822370 
974.959225  	0.824838 
976.390883  	0.828047 
977.822541  	0.831788 
979.254199  	0.835937 
980.685857  	0.841802 
982.117516  	0.845786 
983.549174  	0.848060 
984.980832  	0.851918 
986.412490  	0.855311 
987.844148  	0.858339 
989.275806  	0.863049 
990.707465  	0.868557 
992.139123  	0.872608 
993.570781  	0.873931 
995.002439  	0.876790 
996.434097  	0.883716 
997.865756  	0.891512 
999.297414  	0.901480 
1000.729072  	0.914857 
1002.160730  	0.927276 
1003.592388  	0.934386 
1005.024046  	0.933762 
1006.455705  	0.929981 
1007.887363  	0.928743 
1009.319021  	0.932641 
1010.750679  	0.947268 
1012.182337  	0.963880 
1013.613996  	0.949032 
1015.045654  	0.886086 
1016.477312  	0.803113 
1017.908970  	0.734617 
1019.340628  	0.689897 
1020.772287  	0.666456 
1022.203945  	0.661147 
1023.635603  	0.667470 
1025.067261  	0.679739 
1026.498919  	0.694875 
1027.930577  	0.708954 
1029.362236  	0.721176 
1030.793894  	0.732832 
1032.225552  	0.742002 
1033.657210  	0.749458 
1035.088868  	0.757408 
1036.520527  	0.764817 
1037.952185  	0.771663 
1039.383843  	0.778164 
1040.815501  	0.783979 
1042.247159  	0.789731 
1043.678818  	0.796068 
1045.110476  	0.802634 
1046.542134  	0.807013 
1047.973792  	0.811190 
1049.405450  	0.818120 
1050.837108  	0.823252 
1052.268767  	0.828068 
1053.700425  	0.835529 
1055.132083  	0.839968 
1056.563741  	0.844788 
1057.995399  	0.852055 
1059.427058  	0.855381 
1060.858716  	0.860476 
1062.290374  	0.868686 
1063.722032  	0.874397 
1065.153690  	0.882463 
1066.585348  	0.891063 
1068.017007  	0.897298 
1069.448665  	0.906932 
1070.880323  	0.918138 
1072.311981  	0.929661 
1073.743639  	0.942490 
1075.175298  	0.955574 
1076.606956  	0.970689 
1078.038614  	0.978190 
1079.470272  	0.966937 
1080.901930  	0.937187 
1082.333589  	0.896748 
1083.765247  	0.866654 
1085.196905  	0.856036 
1086.628563  	0.859210 
1088.060221  	0.873121 
1089.491879  	0.890001 
1090.923538  	0.904675 
1092.355196  	0.920962 
1093.786854  	0.933397 
1095.218512  	0.941483 
1096.650170  	0.948479 
1098.081829  	0.946969 
1099.513487  	0.938376 
1100.945145  	0.923304 
1102.376803  	0.900199 
1103.808461  	0.877795 
1105.240120  	0.859840 
1106.671778  	0.847683 
1108.103436  	0.842367 
1109.535094  	0.841455 
1110.966752  	0.844977 
1112.398410  	0.849500 
1113.830069  	0.851699 
1115.261727  	0.852542 
1116.693385  	0.848187 
1118.125043  	0.841704 
1119.556701  	0.836927 
1120.988360  	0.828783 
1122.420018  	0.821357 
1123.851676  	0.817643 
1125.283334  	0.814684 
1126.714992  	0.815829 
1128.146650  	0.819504 
1129.578309  	0.824276 
1131.009967  	0.833537 
1132.441625  	0.843273 
1133.873283  	0.854441 
1135.304941  	0.869807 
1136.736600  	0.883772 
1138.168258  	0.898390 
1139.599916  	0.914144 
1141.031574  	0.928235 
1142.463232  	0.945270 
1143.894891  	0.961639 
1145.326549  	0.977213 
1146.758207  	0.995931 
1148.189865  	1.010019 
1149.621523  	1.024993 
1151.053181  	1.046635 
1152.484840  	1.065919 
1153.916498  	1.085083 
1155.348156  	1.103132 
1156.779814  	1.114300 
1158.211472  	1.115660 
1159.643131  	1.095006 
1161.074789  	1.052704 
1162.506447  	0.992307 
1163.938105  	0.919901 
1165.369763  	0.850764 
1166.801421  	0.792397 
1168.233080  	0.753851 
1169.664738  	0.742298 
1171.096396  	0.755072 
1172.528054  	0.786527 
1173.959712  	0.829189 
1175.391371  	0.872476 
1176.823029  	0.912109 
1178.254687  	0.945022 
1179.686345  	0.971715 
1181.118003  	1.001488 
1182.549662  	1.031912 
1183.981320  	1.058855 
1185.412978  	1.077401 
1186.844636  	1.072967 
1188.276294  	1.049343 
1189.707952  	1.011835 
1191.139611  	0.962659 
1192.571269  	0.911176 
1194.002927  	0.859501 
1195.434585  	0.810619 
1196.866243  	0.765362 
1198.297902  	0.723509 
1199.729560  	0.690012 
1201.161218  	0.665082 
1202.592876  	0.649836 
1204.024534  	0.650280 
1205.456193  	0.667678 
1206.887851  	0.699341 
1208.319509  	0.741974 
1209.751167  	0.788574 
1211.182825  	0.834375 
1212.614483  	0.874768 
1214.046142  	0.902388 
1215.477800  	0.919946 
1216.909458  	0.925488 
1218.341116  	0.918311 
1219.772774  	0.907073 
1221.204433  	0.889955 
1222.636091  	0.869026 
1224.067749  	0.848274 
1225.499407  	0.825164 
1226.931065  	0.803186 
1228.362723  	0.783051 
1229.794382  	0.763172 
1231.226040  	0.745342 
1232.657698  	0.728502 
1234.089356  	0.713499 
1235.521014  	0.700784 
1236.952673  	0.688259 
1238.384331  	0.677252 
1239.815989  	0.667012 
1241.247647  	0.655678 
1242.679305  	0.644103 
1244.110964  	0.630891 
1245.542622  	0.615294 
1246.974280  	0.597562 
1248.405938  	0.577490 
1249.837596  	0.556832 
1251.269254  	0.535890 
1252.700913  	0.515105 
1254.132571  	0.496273 
1255.564229  	0.479931 
1256.995887  	0.467248 
1258.427545  	0.459799 
1259.859204  	0.458406 
1261.290862  	0.462341 
1262.722520  	0.469180 
1264.154178  	0.475701 
1265.585836  	0.478589 
1267.017495  	0.476499 
1268.449153  	0.469957 
1269.880811  	0.459598 
1271.312469  	0.446931 
1272.744127  	0.433858 
1274.175785  	0.421250 
1275.607444  	0.409519 
1277.039102  	0.398268 
1278.470760  	0.387995 
1279.902418  	0.379291 
1281.334076  	0.371060 
1282.765735  	0.363581 
1284.197393  	0.356974 
1285.629051  	0.350658 
1287.060709  	0.345098 
1288.492367  	0.339509 
1289.924025  	0.334293 
1291.355684  	0.330076 
1292.787342  	0.325248 
1294.219000  	0.320703 
1295.650658  	0.316959 
1297.082316  	0.313346 
1298.513975  	0.311528 
1299.945633  	0.311068 
1301.377291  	0.311859 
1302.808949  	0.314542 
1304.240607  	0.317007 
1305.672266  	0.319950 
1307.103924  	0.323875 
1308.535582  	0.326628 
1309.967240  	0.328395 
1311.398898  	0.328538 
1312.830556  	0.327360 
1314.262215  	0.327625 
1315.693873  	0.328774 
1317.125531  	0.331170 
1318.557189  	0.334976 
1319.988847  	0.337835 
1321.420506  	0.340903 
1322.852164  	0.343780 
1324.283822  	0.345287 
1325.715480  	0.347405 
1327.147138  	0.349196 
1328.578796  	0.350420 
1330.010455  	0.352559 
1331.442113  	0.354489 
1332.873771  	0.356984 
1334.305429  	0.360022 
1335.737087  	0.362808 
1337.168746  	0.366981 
1338.600404  	0.370730 
1340.032062  	0.373307 
1341.463720  	0.377157 
1342.895378  	0.380741 
1344.327037  	0.384186 
1345.758695  	0.388079 
1347.190353  	0.391496 
1348.622011  	0.395287 
1350.053669  	0.398694 
1351.485327  	0.401663 
1352.916986  	0.405304 
1354.348644  	0.408452 
1355.780302  	0.412645 
1357.211960  	0.418902 
1358.643618  	0.426081 
1360.075277  	0.435501 
1361.506935  	0.445138 
1362.938593  	0.449356 
1364.370251  	0.445325 
1365.801909  	0.436374 
1367.233568  	0.426349 
1368.665226  	0.419787 
1370.096884  	0.418179 
1371.528542  	0.420517 
1372.960200  	0.424411 
1374.391858  	0.427266 
1375.823517  	0.431324 
1377.255175  	0.436061 
1378.686833  	0.440176 
1380.118491  	0.445324 
1381.550149  	0.450855 
1382.981808  	0.455746 
1384.413466  	0.459129 
1385.845124  	0.459248 
1387.276782  	0.453833 
1388.708440  	0.447029 
1390.140098  	0.443557 
1391.571757  	0.442284 
1393.003415  	0.442507 
1394.435073  	0.443431 
1395.866731  	0.445714 
1397.298389  	0.449685 
1398.730048  	0.454568 
1400.161706  	0.460050 
1401.593364  	0.467177 
1403.025022  	0.475980 
1404.456680  	0.484253 
1405.888339  	0.491245 
1407.319997  	0.493167 
1408.751655  	0.484725 
1410.183313  	0.468363 
1411.614971  	0.448562 
1413.046629  	0.431726 
1414.478288  	0.421946 
1415.909946  	0.417303 
1417.341604  	0.416328 
1418.773262  	0.417177 
1420.204920  	0.418182 
1421.636579  	0.422443 
1423.068237  	0.426715 
1424.499895  	0.428558 
1425.931553  	0.432163 
1427.363211  	0.436470 
1428.794870  	0.439503 
1430.226528  	0.443120 
1431.658186  	0.445695 
1433.089844  	0.448413 
1434.521502  	0.452786 
1435.953160  	0.454803 
1437.384819  	0.454947 
1438.816477  	0.458449 
1440.248135  	0.462143 
1441.679793  	0.465745 
1443.111451  	0.468726 
1444.543110  	0.471549 
1445.974768  	0.474947 
1447.406426  	0.476453 
1448.838084  	0.476978 
1450.269742  	0.478739 
1451.701400  	0.478579 
1453.133059  	0.477837 
1454.564717  	0.479972 
1455.996375  	0.482077 
1457.428033  	0.481996 
1458.859691  	0.484079 
1460.291350  	0.487227 
1461.723008  	0.489904 
1463.154666  	0.491297 
1464.586324  	0.489172 
1466.017982  	0.485182 
1467.449641  	0.484113 
1468.881299  	0.483890 
1470.312957  	0.483732 
1471.744615  	0.482929 
1473.176273  	0.480029 
1474.607931  	0.480282 
1476.039590  	0.482292 
1477.471248  	0.483245 
1478.902906  	0.486020 
1480.334564  	0.490594 
1481.766222  	0.494400 
1483.197881  	0.500251 
1484.629539  	0.508597 
1486.061197  	0.516059 
1487.492855  	0.525502 
1488.924513  	0.535950 
1490.356172  	0.543782 
1491.787830  	0.557625 
1493.219488  	0.571458 
1494.651146  	0.582012 
1496.082804  	0.594810 
1497.514462  	0.605446 
1498.946121  	0.613326 
1500.377779  	0.619130 
1501.809437  	0.613804 
1503.241095  	0.603396 
1504.672753  	0.589160 
1506.104412  	0.554921 
1507.536070  	0.495298 
1508.967728  	0.458707 
1510.399386  	0.429394 
1511.831044  	0.403910 
1513.262702  	0.386880 
1514.694361  	0.377609 
1516.126019  	0.373654 
1517.557677  	0.371836 
1518.989335  	0.373376 
1520.420993  	0.377605 
1521.852652  	0.378761 
1523.284310  	0.382298 
1524.715968  	0.387961 
1526.147626  	0.390243 
1527.579284  	0.393016 
1529.010943  	0.396320 
1530.442601  	0.398323 
1531.874259  	0.401995 
1533.305917  	0.403758 
1534.737575  	0.403552 
1536.169233  	0.407941 
1537.600892  	0.411626 
1539.032550  	0.412703 
1540.464208  	0.412275 
1541.895866  	0.412860 
1543.327524  	0.415990 
1544.759183  	0.417411 
1546.190841  	0.418220 
1547.622499  	0.421811 
1549.054157  	0.423682 
1550.485815  	0.423508 
1551.917473  	0.426198 
1553.349132  	0.428021 
1554.780790  	0.427997 
1556.212448  	0.430984 
1557.644106  	0.434419 
1559.075764  	0.429613 
1560.507423  	0.427182 
1561.939081  	0.433011 
1563.370739  	0.436323 
1564.802397  	0.436866 
1566.234055  	0.438486 
1567.665714  	0.441578 
1569.097372  	0.442296 
1570.529030  	0.441508 
1571.960688  	0.444200 
1573.392346  	0.447924 
1574.824004  	0.450255 
1576.255663  	0.448865 
1577.687321  	0.447605 
1579.118979  	0.448875 
1580.550637  	0.449059 
1581.982295  	0.449044 
1583.413954  	0.450403 
1584.845612  	0.451877 
1586.277270  	0.453962 
1587.708928  	0.456603 
1589.140586  	0.458156 
1590.572245  	0.458868 
1592.003903  	0.459029 
1593.435561  	0.457937 
1594.867219  	0.456487 
1596.298877  	0.455373 
1597.730535  	0.454952 
1599.162194  	0.455301 
1600.593852  	0.455227 
1602.025510  	0.454646 
1603.457168  	0.453585 
1604.888826  	0.451692 
1606.320485  	0.449827 
1607.752143  	0.447763 
1609.183801  	0.446405 
1610.615459  	0.446224 
1612.047117  	0.445562 
1613.478775  	0.446339 
1614.910434  	0.448391 
1616.342092  	0.447120 
1617.773750  	0.444332 
1619.205408  	0.446399 
1620.637066  	0.449232 
1622.068725  	0.450635 
1623.500383  	0.449571 
1624.932041  	0.449775 
1626.363699  	0.452077 
1627.795357  	0.452567 
1629.227016  	0.452532 
1630.658674  	0.454517 
1632.090332  	0.456416 
1633.521990  	0.458571 
1634.953648  	0.459798 
1636.385306  	0.456540 
1637.816965  	0.458107 
1639.248623  	0.461269 
1640.680281  	0.461943 
1642.111939  	0.463351 
1643.543597  	0.466057 
1644.975256  	0.468012 
1646.406914  	0.467828 
1647.838572  	0.464250 
1649.270230  	0.466255 
1650.701888  	0.471689 
1652.133547  	0.474594 
1653.565205  	0.467241 
1654.996863  	0.467649 
1656.428521  	0.471828 
1657.860179  	0.474372 
1659.291837  	0.475893 
1660.723496  	0.478341 
1662.155154  	0.480153 
1663.586812  	0.478975 
1665.018470  	0.481159 
1666.450128  	0.484943 
1667.881787  	0.486332 
1669.313445  	0.486801 
1670.745103  	0.486998 
1672.176761  	0.489634 
1673.608419  	0.494215 
1675.040077  	0.493655 
1676.471736  	0.492600 
1677.903394  	0.497630 
1679.335052  	0.499428 
1680.766710  	0.501362 
1682.198368  	0.507021 
1683.630027  	0.507519 
1685.061685  	0.504001 
1686.493343  	0.510469 
1687.925001  	0.516213 
1689.356659  	0.520991 
1690.788318  	0.524589 
1692.219976  	0.531065 
1693.651634  	0.539625 
1695.083292  	0.543916 
1696.514950  	0.548749 
1697.946608  	0.560175 
1699.378267  	0.568282 
1700.809925  	0.576365 
1702.241583  	0.590676 
1703.673241  	0.605237 
1705.104899  	0.620896 
1706.536558  	0.635639 
1707.968216  	0.653727 
1709.399874  	0.669307 
1710.831532  	0.675284 
1712.263190  	0.680717 
1713.694849  	0.677991 
1715.126507  	0.661645 
1716.558165  	0.648657 
1717.989823  	0.621069 
1719.421481  	0.586367 
1720.853139  	0.569137 
1722.284798  	0.546011 
1723.716456  	0.517595 
1725.148114  	0.496081 
1726.579772  	0.473520 
1728.011430  	0.453989 
1729.443089  	0.438645 
1730.874747  	0.421116 
1732.306405  	0.413093 
1733.738063  	0.407034 
1735.169721  	0.394704 
1736.601379  	0.400263 
1738.033038  	0.405162 
1739.464696  	0.407526 
1740.896354  	0.416293 
1742.328012  	0.423303 
1743.759670  	0.430011 
1745.191329  	0.440012 
1746.622987  	0.448407 
1748.054645  	0.457633 
1749.486303  	0.467652 
1750.917961  	0.476273 
1752.349620  	0.488035 
1753.781278  	0.501765 
1755.212936  	0.515451 
1756.644594  	0.529754 
1758.076252  	0.546787 
1759.507910  	0.566047 
1760.939569  	0.582699 
1762.371227  	0.599224 
1763.802885  	0.616523 
1765.234543  	0.626458 
1766.666201  	0.632188 
1768.097860  	0.628822 
1769.529518  	0.616146 
1770.961176  	0.605750 
1772.392834  	0.580884 
1773.824492  	0.552129 
1775.256150  	0.536165 
1776.687809  	0.511062 
1778.119467  	0.487000 
1779.551125  	0.468019 
1780.982783  	0.440083 
1782.414441  	0.419604 
1783.846100  	0.403188 
1785.277758  	0.380263 
1786.709416  	0.365646 
1788.141074  	0.352586 
1789.572732  	0.338630 
1791.004391  	0.330902 
1792.436049  	0.318523 
1793.867707  	0.310190 
1795.299365  	0.309722 
1796.731023  	0.306289 
1798.162681  	0.306593 
1799.594340  	0.307926 
1801.025998  	0.306869 
1802.457656  	0.310555 
1803.889314  	0.312554 
1805.320972  	0.314067 
1806.752631  	0.318104 
1808.184289  	0.319597 
1809.615947  	0.322436 
1811.047605  	0.325619 
1812.479263  	0.325874 
1813.910922  	0.328805 
1815.342580  	0.330991 
1816.774238  	0.331947 
1818.205896  	0.334848 
1819.637554  	0.335652 
1821.069212  	0.337315 
1822.500871  	0.340313 
1823.932529  	0.340572 
1825.364187  	0.341666 
1826.795845  	0.343482 
1828.227503  	0.344941 
1829.659162  	0.346528 
1831.090820  	0.345671 
1832.522478  	0.347493 
1833.954136  	0.349456 
1835.385794  	0.348199 
1836.817452  	0.349763 
1838.249111  	0.351384 
1839.680769  	0.351410 
1841.112427  	0.354475 
1842.544085  	0.355262 
1843.975743  	0.353190 
1845.407402  	0.354008 
1846.839060  	0.354730 
1848.270718  	0.356225 
1849.702376  	0.357488 
1851.134034  	0.357486 
1852.565693  	0.358547 
1853.997351  	0.357873 
1855.429009  	0.357808 
1856.860667  	0.359970 
1858.292325  	0.359673 
1859.723983  	0.359714 
1861.155642  	0.360283 
1862.587300  	0.359611 
1864.018958  	0.361105 
1865.450616  	0.362366 
1866.882274  	0.363488 
1868.313933  	0.364446 
1869.745591  	0.360819 
1871.177249  	0.361261 
1872.608907  	0.364055 
1874.040565  	0.363330 
1875.472224  	0.364611 
1876.903882  	0.365827 
1878.335540  	0.364732 
1879.767198  	0.365760 
1881.198856  	0.365659 
1882.630514  	0.365239 
1884.062173  	0.365871 
1885.493831  	0.365493 
1886.925489  	0.368068 
1888.357147  	0.369237 
1889.788805  	0.366249 
1891.220464  	0.367034 
1892.652122  	0.367914 
1894.083780  	0.367669 
1895.515438  	0.368504 
1896.947096  	0.366650 
1898.378754  	0.366292 
1899.810413  	0.367261 
1901.242071  	0.365828 
1902.673729  	0.366388 
1904.105387  	0.366507 
1905.537045  	0.365260 
1906.968704  	0.365707 
1908.400362  	0.364305 
1909.832020  	0.363562 
1911.263678  	0.363410 
1912.695336  	0.360642 
1914.126995  	0.361202 
1915.558653  	0.362561 
1916.990311  	0.360902 
1918.421969  	0.360268 
1919.853627  	0.360229 
1921.285285  	0.362033 
1922.716944  	0.363459 
1924.148602  	0.360707 
1925.580260  	0.360396 
1927.011918  	0.360097 
1928.443576  	0.358970 
1929.875235  	0.360894 
1931.306893  	0.359170 
1932.738551  	0.357369 
1934.170209  	0.358532 
1935.601867  	0.355424 
1937.033525  	0.354686 
1938.465184  	0.356514 
1939.896842  	0.356098 
1941.328500  	0.358127 
1942.760158  	0.356633 
1944.191816  	0.353640 
1945.623475  	0.354784 
1947.055133  	0.351938 
1948.486791  	0.351373 
1949.918449  	0.353144 
1951.350107  	0.349762 
1952.781766  	0.348923 
1954.213424  	0.347540 
1955.645082  	0.345259 
1957.076740  	0.346808 
1958.508398  	0.342404 
1959.940056  	0.339100 
1961.371715  	0.339250 
1962.803373  	0.334152 
1964.235031  	0.336422 
1965.666689  	0.339125 
1967.098347  	0.334814 
1968.530006  	0.334667 
1969.961664  	0.330060 
1971.393322  	0.327698 
1972.824980  	0.332033 
1974.256638  	0.326784 
1975.688297  	0.323999 
1977.119955  	0.326187 
1978.551613  	0.325919 
1979.983271  	0.330613 
1981.414929  	0.331281 
1982.846587  	0.333807 
1984.278246  	0.339934 
1985.709904  	0.337292 
1987.141562  	0.338683 
1988.573220  	0.342670 
1990.004878  	0.339652 
1991.436537  	0.340388 
1992.868195  	0.337796 
1994.299853  	0.333440 
1995.731511  	0.336841 
1997.163169  	0.337714 
1998.594827  	0.340964 
2000.026486  	0.343628 
2001.458144  	0.337245 
2002.889802  	0.338204 
2004.321460  	0.340362 
2005.753118  	0.334324 
2007.184777  	0.332705 
2008.616435  	0.329778 
2010.048093  	0.328314 
2011.479751  	0.331219 
2012.911409  	0.329384 
2014.343068  	0.332253 
2015.774726  	0.333776 
2017.206384  	0.329664 
2018.638042  	0.331603 
2020.069700  	0.329562 
2021.501358  	0.329096 
2022.933017  	0.332301 
2024.364675  	0.323847 
2025.796333  	0.321129 
2027.227991  	0.324898 
2028.659649  	0.322637 
2030.091308  	0.326265 
2031.522966  	0.327113 
2032.954624  	0.326096 
2034.386282  	0.331882 
2035.817940  	0.331692 
2037.249599  	0.334058 
2038.681257  	0.338169 
2040.112915  	0.336113 
2041.544573  	0.340484 
2042.976231  	0.342563 
2044.407889  	0.341178 
2045.839548  	0.346476 
2047.271206  	0.344579 
2048.702864  	0.341305 
2050.134522  	0.346425 
2051.566180  	0.349268 
2052.997839  	0.352541 
2054.429497  	0.354492 
2055.861155  	0.352775 
2057.292813  	0.354739 
2058.724471  	0.355042 
2060.156129  	0.353558 
2061.587788  	0.354719 
2063.019446  	0.353411 
2064.451104  	0.352982 
2065.882762  	0.354643 
2067.314420  	0.355554 
2068.746079  	0.358063 
2070.177737  	0.358030 
2071.609395  	0.357431 
2073.041053  	0.360302 
2074.472711  	0.360619 
2075.904370  	0.359877 
2077.336028  	0.360687 
2078.767686  	0.360980 
2080.199344  	0.361662 
2081.631002  	0.361364 
2083.062660  	0.361999 
2084.494319  	0.363788 
2085.925977  	0.363237 
2087.357635  	0.364157 
2088.789293  	0.364636 
2090.220951  	0.362425 
2091.652610  	0.363213 
2093.084268  	0.363117 
2094.515926  	0.361055 
2095.947584  	0.360865 
2097.379242  	0.359147 
2098.810901  	0.360729 
2100.242559  	0.364863 
2101.674217  	0.363415 
2103.105875  	0.362723 
2104.537533  	0.363563 
2105.969191  	0.362435 
2107.400850  	0.363455 
2108.832508  	0.363754 
2110.264166  	0.363592 
2111.695824  	0.364656 
2113.127482  	0.363380 
2114.559141  	0.363735 
2115.990799  	0.364398 
2117.422457  	0.362502 
2118.854115  	0.363545 
2120.285773  	0.363776 
2121.717431  	0.362495 
2123.149090  	0.364228 
2124.580748  	0.363310 
2126.012406  	0.361750 
2127.444064  	0.362324 
2128.875722  	0.360239 
2130.307381  	0.359867 
2131.739039  	0.359847 
2133.170697  	0.355723 
2134.602355  	0.353640 
2136.034013  	0.352413 
2137.465672  	0.351127 
2138.897330  	0.351299 
2140.328988  	0.349642 
2141.760646  	0.349442 
2143.192304  	0.348184 
2144.623962  	0.345151 
2146.055621  	0.346651 
2147.487279  	0.344802 
2148.918937  	0.340757 
2150.350595  	0.340360 
2151.782253  	0.337094 
2153.213912  	0.335936 
2154.645570  	0.333632 
2156.077228  	0.325053 
2157.508886  	0.322856 
2158.940544  	0.319985 
2160.372202  	0.318966 
2161.803861  	0.327884 
2163.235519  	0.328573 
2164.667177  	0.328355 
2166.098835  	0.333397 
2167.530493  	0.333738 
2168.962152  	0.335130 
2170.393810  	0.336765 
2171.825468  	0.337661 
2173.257126  	0.341026 
2174.688784  	0.339199 
2176.120443  	0.337235 
2177.552101  	0.339276 
2178.983759  	0.338343 
2180.415417  	0.338600 
2181.847075  	0.338341 
2183.278733  	0.338249 
2184.710392  	0.343407 
2186.142050  	0.344355 
2187.573708  	0.344103 
2189.005366  	0.347741 
2190.437024  	0.347395 
2191.868683  	0.346297 
2193.300341  	0.346058 
2194.731999  	0.344417 
2196.163657  	0.345288 
2197.595315  	0.346251 
2199.026974  	0.348198 
2200.458632  	0.350822 
2201.890290  	0.349350 
2203.321948  	0.349272 
2204.753606  	0.350134 
2206.185264  	0.348577 
2207.616923  	0.349403 
2209.048581  	0.350324 
2210.480239  	0.351742 
2211.911897  	0.354099 
2213.343555  	0.351781 
2214.775214  	0.351039 
2216.206872  	0.354093 
2217.638530  	0.353828 
2219.070188  	0.352134 
2220.501846  	0.352092 
2221.933504  	0.354763 
2223.365163  	0.356283 
2224.796821  	0.353000 
2226.228479  	0.353692 
2227.660137  	0.356987 
2229.091795  	0.355448 
2230.523454  	0.355384 
2231.955112  	0.356724 
2233.386770  	0.356556 
2234.818428  	0.356935 
2236.250086  	0.355399 
2237.681745  	0.355418 
2239.113403  	0.358128 
2240.545061  	0.358164 
2241.976719  	0.357750 
2243.408377  	0.357025 
2244.840035  	0.356617 
2246.271694  	0.358706 
2247.703352  	0.357712 
2249.135010  	0.356686 
2250.566668  	0.359002 
2251.998326  	0.358324 
2253.429985  	0.357867 
2254.861643  	0.359010 
2256.293301  	0.357678 
2257.724959  	0.357903 
2259.156617  	0.358497 
2260.588276  	0.357779 
2262.019934  	0.359487 
2263.451592  	0.360469 
2264.883250  	0.359088 
2266.314908  	0.358165 
2267.746566  	0.358492 
2269.178225  	0.360250 
2270.609883  	0.361452 
2272.041541  	0.362619 
2273.473199  	0.363648 
2274.904857  	0.361533 
2276.336516  	0.360687 
2277.768174  	0.362736 
2279.199832  	0.362929 
2280.631490  	0.363165 
2282.063148  	0.364244 
2283.494806  	0.363995 
2284.926465  	0.363876 
2286.358123  	0.364305 
2287.789781  	0.365129 
2289.221439  	0.365591 
2290.653097  	0.365361 
2292.084756  	0.366257 
2293.516414  	0.366506 
2294.948072  	0.365796 
2296.379730  	0.366798 
2297.811388  	0.367337 
2299.243047  	0.366906 
2300.674705  	0.367156 
2302.106363  	0.367018 
2303.538021  	0.367492 
2304.969679  	0.368020 
2306.401337  	0.367411 
2307.832996  	0.368092 
2309.264654  	0.368894 
2310.696312  	0.368459 
2312.127970  	0.368372 
2313.559628  	0.368144 
2314.991287  	0.368643 
2316.422945  	0.369462 
2317.854603  	0.368969 
2319.286261  	0.369628 
2320.717919  	0.370746 
2322.149577  	0.370646 
2323.581236  	0.371367 
2325.012894  	0.371796 
2326.444552  	0.371883 
2327.876210  	0.372808 
2329.307868  	0.372797 
2330.739527  	0.372229 
2332.171185  	0.371871 
2333.602843  	0.371287 
2335.034501  	0.371188 
2336.466159  	0.370504 
2337.897818  	0.369998 
2339.329476  	0.370914 
2340.761134  	0.370998 
2342.192792  	0.370803 
2343.624450  	0.370954 
2345.056108  	0.370148 
2346.487767  	0.369514 
2347.919425  	0.369080 
2349.351083  	0.369184 
2350.782741  	0.370725 
2352.214399  	0.371935 
2353.646058  	0.371764 
2355.077716  	0.371377 
2356.509374  	0.371131 
2357.941032  	0.371628 
2359.372690  	0.371465 
2360.804349  	0.371088 
2362.236007  	0.371969 
2363.667665  	0.371366 
2365.099323  	0.370241 
2366.530981  	0.370037 
2367.962639  	0.369272 
2369.394298  	0.369311 
2370.825956  	0.368886 
2372.257614  	0.367498 
2373.689272  	0.367742 
2375.120930  	0.367740 
2376.552589  	0.366951 
2377.984247  	0.366748 
2379.415905  	0.366086 
2380.847563  	0.365608 
2382.279221  	0.365470 
2383.710879  	0.364756 
2385.142538  	0.364141 
2386.574196  	0.363635 
2388.005854  	0.363930 
2389.437512  	0.364685 
2390.869170  	0.363549 
2392.300829  	0.362337 
2393.732487  	0.362627 
2395.164145  	0.362478 
2396.595803  	0.362294 
2398.027461  	0.362367 
2399.459120  	0.362110 
2400.890778  	0.362030 
2402.322436  	0.361704 
2403.754094  	0.361590 
2405.185752  	0.361508 
2406.617410  	0.360509 
2408.049069  	0.360297 
2409.480727  	0.360814 
2410.912385  	0.360990 
2412.344043  	0.361397 
2413.775701  	0.361346 
2415.207360  	0.361343 
2416.639018  	0.361409 
2418.070676  	0.360306 
2419.502334  	0.359931 
2420.933992  	0.360063 
2422.365651  	0.359418 
2423.797309  	0.359746 
2425.228967  	0.359729 
2426.660625  	0.358788 
2428.092283  	0.358856 
2429.523941  	0.358802 
2430.955600  	0.359066 
2432.387258  	0.359869 
2433.818916  	0.359046 
2435.250574  	0.358240 
2436.682232  	0.358601 
2438.113891  	0.358858 
2439.545549  	0.359128 
2440.977207  	0.359021 
2442.408865  	0.358888 
2443.840523  	0.358935 
2445.272181  	0.358360 
2446.703840  	0.358362 
2448.135498  	0.358307 
2449.567156  	0.357070 
2450.998814  	0.356850 
2452.430472  	0.357505 
2453.862131  	0.357269 
2455.293789  	0.356610 
2456.725447  	0.356372 
2458.157105  	0.356868 
2459.588763  	0.357263 
2461.020422  	0.357337 
2462.452080  	0.357403 
2463.883738  	0.356559 
2465.315396  	0.356084 
2466.747054  	0.356729 
2468.178712  	0.356416 
2469.610371  	0.355914 
2471.042029  	0.356258 
2472.473687  	0.356407 
2473.905345  	0.356345 
2475.337003  	0.355821 
2476.768662  	0.355433 
2478.200320  	0.355770 
2479.631978  	0.355442 
2481.063636  	0.354963 
2482.495294  	0.355065 
2483.926953  	0.355256 
2485.358611  	0.355820 
2486.790269  	0.355584 
2488.221927  	0.354497 
2489.653585  	0.354218 
2491.085243  	0.354216 
2492.516902  	0.354511 
2493.948560  	0.355097 
2495.380218  	0.354849 
2496.811876  	0.354362 
2498.243534  	0.353879 
2499.675193  	0.353651 
2501.106851  	0.354194 
2502.538509  	0.354207 
2503.970167  	0.353716 
2505.401825  	0.353337 
2506.833483  	0.353065 
2508.265142  	0.353500 
2509.696800  	0.353390 
2511.128458  	0.352745 
2512.560116  	0.352879 
2513.991774  	0.352503 
2515.423433  	0.352583 
2516.855091  	0.353890 
2518.286749  	0.354010 
2519.718407  	0.353587 
2521.150065  	0.353290 
2522.581724  	0.352659 
2524.013382  	0.352900 
2525.445040  	0.352836 
2526.876698  	0.352088 
2528.308356  	0.352083 
2529.740014  	0.352028 
2531.171673  	0.352271 
2532.603331  	0.352596 
2534.034989  	0.351829 
2535.466647  	0.351264 
2536.898305  	0.350835 
2538.329964  	0.350653 
2539.761622  	0.351445 
2541.193280  	0.351232 
2542.624938  	0.350602 
2544.056596  	0.350846 
2545.488254  	0.350663 
2546.919913  	0.350449 
2548.351571  	0.350218 
2549.783229  	0.350387 
2551.214887  	0.351785 
2552.646545  	0.351681 
2554.078204  	0.350318 
2555.509862  	0.350131 
2556.941520  	0.349913 
2558.373178  	0.349670 
2559.804836  	0.349548 
2561.236495  	0.349115 
2562.668153  	0.349729 
2564.099811  	0.350355 
2565.531469  	0.350445 
2566.963127  	0.350822 
2568.394785  	0.350089 
2569.826444  	0.349341 
2571.258102  	0.349596 
2572.689760  	0.349187 
2574.121418  	0.349247 
2575.553076  	0.349918 
2576.984735  	0.349597 
2578.416393  	0.349287 
2579.848051  	0.349233 
2581.279709  	0.349018 
2582.711367  	0.349085 
2584.143026  	0.349138 
2585.574684  	0.349066 
2587.006342  	0.348829 
2588.438000  	0.348818 
2589.869658  	0.349362 
2591.301316  	0.349492 
2592.732975  	0.349246 
2594.164633  	0.348850 
2595.596291  	0.348496 
2597.027949  	0.349184 
2598.459607  	0.349322 
2599.891266  	0.348061 
2601.322924  	0.347616 
2602.754582  	0.347935 
2604.186240  	0.348252 
2605.617898  	0.348520 
2607.049556  	0.348205 
2608.481215  	0.348210 
2609.912873  	0.348354 
2611.344531  	0.347753 
2612.776189  	0.347534 
2614.207847  	0.347646 
2615.639506  	0.347793 
2617.071164  	0.348249 
2618.502822  	0.347976 
2619.934480  	0.347368 
2621.366138  	0.347411 
2622.797797  	0.347831 
2624.229455  	0.348279 
2625.661113  	0.347715 
2627.092771  	0.346684 
2628.524429  	0.346800 
2629.956087  	0.347155 
2631.387746  	0.347220 
2632.819404  	0.347358 
2634.251062  	0.347139 
2635.682720  	0.347070 
2637.114378  	0.347409 
2638.546037  	0.347724 
2639.977695  	0.347720 
2641.409353  	0.347034 
2642.841011  	0.346658 
2644.272669  	0.347004 
2645.704328  	0.347133 
2647.135986  	0.347495 
2648.567644  	0.347851 
2649.999302  	0.347404 
2651.430960  	0.347063 
2652.862618  	0.346965 
2654.294277  	0.346770 
2655.725935  	0.346812 
2657.157593  	0.346881 
2658.589251  	0.346934 
2660.020909  	0.346891 
2661.452568  	0.346803 
2662.884226  	0.347063 
2664.315884  	0.346978 
2665.747542  	0.346575 
2667.179200  	0.346595 
2668.610858  	0.346404 
2670.042517  	0.346109 
2671.474175  	0.346248 
2672.905833  	0.346308 
2674.337491  	0.346266 
2675.769149  	0.346115 
2677.200808  	0.345879 
2678.632466  	0.345898 
2680.064124  	0.345807 
2681.495782  	0.345755 
2682.927440  	0.346001 
2684.359099  	0.346062 
2685.790757  	0.345885 
2687.222415  	0.345386 
2688.654073  	0.344994 
2690.085731  	0.345198 
2691.517389  	0.345063 
2692.949048  	0.344739 
2694.380706  	0.344931 
2695.812364  	0.344973 
2697.244022  	0.344943 
2698.675680  	0.344982 
2700.107339  	0.344832 
2701.538997  	0.344814 
2702.970655  	0.344565 
2704.402313  	0.344331 
2705.833971  	0.344688 
2707.265630  	0.344675 
2708.697288  	0.344300 
2710.128946  	0.344249 
2711.560604  	0.344229 
2712.992262  	0.344218 
2714.423920  	0.344093 
2715.855579  	0.343985 
2717.287237  	0.344081 
2718.718895  	0.343696 
2720.150553  	0.343304 
2721.582211  	0.343431 
2723.013870  	0.343363 
2724.445528  	0.343351 
2725.877186  	0.343588 
2727.308844  	0.343617 
2728.740502  	0.343456 
2730.172160  	0.343176 
2731.603819  	0.343268 
2733.035477  	0.343420 
2734.467135  	0.342801 
2735.898793  	0.342450 
2737.330451  	0.342754 
2738.762110  	0.342838 
2740.193768  	0.342881 
2741.625426  	0.342910 
2743.057084  	0.342912 
2744.488742  	0.342947 
2745.920401  	0.342660 
2747.352059  	0.342660 
2748.783717  	0.342802 
2750.215375  	0.342228 
2751.647033  	0.341842 
2753.078691  	0.342028 
2754.510350  	0.342065 
2755.942008  	0.341884 
2757.373666  	0.341631 
2758.805324  	0.341696 
2760.236982  	0.341943 
2761.668641  	0.341875 
2763.100299  	0.341750 
2764.531957  	0.341462 
2765.963615  	0.341190 
2767.395273  	0.341379 
2768.826931  	0.341546 
2770.258590  	0.341819 
2771.690248  	0.341984 
2773.121906  	0.341390 
2774.553564  	0.341119 
2775.985222  	0.341473 
2777.416881  	0.341589 
2778.848539  	0.341471 
2780.280197  	0.341129 
2781.711855  	0.341052 
2783.143513  	0.341246 
2784.575172  	0.340780 
2786.006830  	0.340439 
2787.438488  	0.340719 
2788.870146  	0.340750 
2790.301804  	0.340583 
2791.733462  	0.340290 
2793.165121  	0.340130 
2794.596779  	0.340340 
2796.028437  	0.340217 
2797.460095  	0.340166 
2798.891753  	0.340424 
2800.323412  	0.340283 
2801.755070  	0.340210 
2803.186728  	0.340196 
2804.618386  	0.340054 
2806.050044  	0.340435 
2807.481703  	0.340652 
2808.913361  	0.340299 
2810.345019  	0.340183 
2811.776677  	0.340287 
2813.208335  	0.340256 
2814.639993  	0.340007 
2816.071652  	0.339974 
2817.503310  	0.340281 
2818.934968  	0.340152 
2820.366626  	0.340139 
2821.798284  	0.340651 
2823.229943  	0.340607 
2824.661601  	0.340261 
2826.093259  	0.340060 
2827.524917  	0.339920 
2828.956575  	0.340393 
2830.388233  	0.340812 
2831.819892  	0.340607 
2833.251550  	0.340526 
2834.683208  	0.340654 
2836.114866  	0.340999 
2837.546524  	0.341400 
2838.978183  	0.341488 
2840.409841  	0.341619 
2841.841499  	0.341538 
2843.273157  	0.341439 
2844.704815  	0.342159 
2846.136474  	0.342841 
2847.568132  	0.342946 
2848.999790  	0.342950 
2850.431448  	0.342789 
2851.863106  	0.342898 
2853.294764  	0.343478 
2854.726423  	0.343909 
2856.158081  	0.344063 
2857.589739  	0.344152 
2859.021397  	0.344380 
2860.453055  	0.344578 
2861.884714  	0.344853 
2863.316372  	0.345701 
2864.748030  	0.346386 
2866.179688  	0.346690 
2867.611346  	0.347352 
2869.043005  	0.347793 
2870.474663  	0.347825 
2871.906321  	0.347640 
2873.337979  	0.346682 
2874.769637  	0.345568 
2876.201295  	0.344774 
2877.632954  	0.343962 
2879.064612  	0.343448 
2880.496270  	0.342980 
2881.927928  	0.342411 
2883.359586  	0.342142 
2884.791245  	0.341985 
2886.222903  	0.342228 
2887.654561  	0.342812 
2889.086219  	0.343233 
2890.517877  	0.343743 
2891.949535  	0.343813 
2893.381194  	0.343246 
2894.812852  	0.342836 
2896.244510  	0.342431 
2897.676168  	0.342260 
2899.107826  	0.342517 
2900.539485  	0.342421 
2901.971143  	0.342187 
2903.402801  	0.342245 
2904.834459  	0.342603 
2906.266117  	0.343039 
2907.697776  	0.342846 
2909.129434  	0.342712 
2910.561092  	0.343187 
2911.992750  	0.343365 
2913.424408  	0.343348 
2914.856066  	0.343086 
2916.287725  	0.342590 
2917.719383  	0.342992 
2919.151041  	0.343576 
2920.582699  	0.343572 
2922.014357  	0.343971 
2923.446016  	0.344683 
2924.877674  	0.345257 
2926.309332  	0.345654 
2927.740990  	0.345888 
2929.172648  	0.346483 
2930.604306  	0.346955 
2932.035965  	0.346715 
2933.467623  	0.346294 
2934.899281  	0.345845 
2936.330939  	0.345542 
2937.762597  	0.345271 
2939.194256  	0.344741 
2940.625914  	0.344703 
2942.057572  	0.344985 
2943.489230  	0.344925 
2944.920888  	0.345021 
2946.352547  	0.345294 
2947.784205  	0.345671 
2949.215863  	0.346400 
2950.647521  	0.347269 
2952.079179  	0.348274 
2953.510837  	0.349283 
2954.942496  	0.350329 
2956.374154  	0.351644 
2957.805812  	0.352674 
2959.237470  	0.353351 
2960.669128  	0.353975 
2962.100787  	0.354366 
2963.532445  	0.354348 
2964.964103  	0.353169 
2966.395761  	0.350857 
2967.827419  	0.348402 
2969.259078  	0.345655 
2970.690736  	0.342732 
2972.122394  	0.339753 
2973.554052  	0.336196 
2974.985710  	0.332832 
2976.417368  	0.329729 
2977.849027  	0.326570 
2979.280685  	0.324245 
2980.712343  	0.322018 
2982.144001  	0.319620 
2983.575659  	0.317993 
2985.007318  	0.316128 
2986.438976  	0.314206 
2987.870634  	0.313256 
2989.302292  	0.312434 
2990.733950  	0.311849 
2992.165608  	0.311589 
2993.597267  	0.311000 
2995.028925  	0.310554 
2996.460583  	0.310138 
2997.892241  	0.309660 
2999.323899  	0.309569 
3000.755558  	0.309465 
3002.187216  	0.309440 
3003.618874  	0.309618 
3005.050532  	0.309755 
3006.482190  	0.309961 
3007.913849  	0.309813 
3009.345507  	0.309597 
3010.777165  	0.309869 
3012.208823  	0.310128 
3013.640481  	0.310575 
3015.072139  	0.311096 
3016.503798  	0.311292 
3017.935456  	0.311657 
3019.367114  	0.311502 
3020.798772  	0.310975 
3022.230430  	0.311484 
3023.662089  	0.312126 
3025.093747  	0.312250 
3026.525405  	0.312633 
3027.957063  	0.313067 
3029.388721  	0.313535 
3030.820380  	0.314220 
3032.252038  	0.314884 
3033.683696  	0.315359 
3035.115354  	0.315535 
3036.547012  	0.315796 
3037.978670  	0.315901 
3039.410329  	0.315549 
3040.841987  	0.315545 
3042.273645  	0.315513 
3043.705303  	0.315103 
3045.136961  	0.314995 
3046.568620  	0.314656 
3048.000278  	0.314275 
3049.431936  	0.314368 
3050.863594  	0.314165 
3052.295252  	0.314282 
3053.726910  	0.314883 
3055.158569  	0.314770 
3056.590227  	0.314377 
3058.021885  	0.314142 
3059.453543  	0.313856 
3060.885201  	0.313695 
3062.316860  	0.313514 
3063.748518  	0.313406 
3065.180176  	0.313013 
3066.611834  	0.312189 
3068.043492  	0.311928 
3069.475151  	0.311817 
3070.906809  	0.311509 
3072.338467  	0.311645 
3073.770125  	0.311474 
3075.201783  	0.310930 
3076.633441  	0.310614 
3078.065100  	0.310108 
3079.496758  	0.309788 
3080.928416  	0.309754 
3082.360074  	0.309526 
3083.791732  	0.309405 
3085.223391  	0.309148 
3086.655049  	0.308686 
3088.086707  	0.308535 
3089.518365  	0.308783 
3090.950023  	0.309240 
3092.381682  	0.308912 
3093.813340  	0.308037 
3095.244998  	0.308177 
3096.676656  	0.308676 
3098.108314  	0.308763 
3099.539972  	0.308782 
3100.971631  	0.308342 
3102.403289  	0.308165 
3103.834947  	0.308640 
3105.266605  	0.308523 
3106.698263  	0.308153 
3108.129922  	0.308166 
3109.561580  	0.307982 
3110.993238  	0.307765 
3112.424896  	0.307960 
3113.856554  	0.308103 
3115.288212  	0.307750 
3116.719871  	0.307463 
3118.151529  	0.307324 
3119.583187  	0.306801 
3121.014845  	0.306802 
3122.446503  	0.307288 
3123.878162  	0.307097 
3125.309820  	0.306967 
3126.741478  	0.306749 
3128.173136  	0.306134 
3129.604794  	0.306601 
3131.036453  	0.307077 
3132.468111  	0.306281 
3133.899769  	0.305493 
3135.331427  	0.305119 
3136.763085  	0.305460 
3138.194743  	0.306089 
3139.626402  	0.305711 
3141.058060  	0.305567 
3142.489718  	0.305984 
3143.921376  	0.305692 
3145.353034  	0.305435 
3146.784693  	0.305528 
3148.216351  	0.305667 
3149.648009  	0.305722 
3151.079667  	0.305053 
3152.511325  	0.304675 
3153.942983  	0.305157 
3155.374642  	0.305299 
3156.806300  	0.305241 
3158.237958  	0.305349 
3159.669616  	0.305481 
3161.101274  	0.305543 
3162.532933  	0.305083 
3163.964591  	0.304470 
3165.396249  	0.303912 
3166.827907  	0.303581 
3168.259565  	0.304132 
3169.691224  	0.304445 
3171.122882  	0.304275 
3172.554540  	0.304597 
3173.986198  	0.304397 
3175.417856  	0.303930 
3176.849514  	0.304079 
3178.281173  	0.303845 
3179.712831  	0.303544 
3181.144489  	0.303506 
3182.576147  	0.303198 
3184.007805  	0.303023 
3185.439464  	0.302980 
3186.871122  	0.303374 
3188.302780  	0.303871 
3189.734438  	0.303294 
3191.166096  	0.302958 
3192.597755  	0.303201 
3194.029413  	0.302597 
3195.461071  	0.302159 
3196.892729  	0.302392 
3198.324387  	0.302683 
3199.756045  	0.303133 
3201.187704  	0.303038 
3202.619362  	0.302658 
3204.051020  	0.302759 
3205.482678  	0.302780 
3206.914336  	0.302726 
3208.345995  	0.302627 
3209.777653  	0.302387 
3211.209311  	0.302273 
3212.640969  	0.301884 
3214.072627  	0.301431 
3215.504285  	0.301224 
3216.935944  	0.301301 
3218.367602  	0.302163 
3219.799260  	0.302680 
3221.230918  	0.302252 
3222.662576  	0.302020 
3224.094235  	0.301586 
3225.525893  	0.301113 
3226.957551  	0.301050 
3228.389209  	0.300425 
3229.820867  	0.300099 
3231.252526  	0.300576 
3232.684184  	0.300711 
3234.115842  	0.300727 
3235.547500  	0.300558 
3236.979158  	0.300324 
3238.410816  	0.300762 
3239.842475  	0.300989 
3241.274133  	0.300829 
3242.705791  	0.300722 
3244.137449  	0.300425 
3245.569107  	0.300459 
3247.000766  	0.300366 
3248.432424  	0.299608 
3249.864082  	0.299274 
3251.295740  	0.299390 
3252.727398  	0.299503 
3254.159057  	0.299648 
3255.590715  	0.299734 
3257.022373  	0.300143 
3258.454031  	0.300433 
3259.885689  	0.300062 
3261.317347  	0.299571 
3262.749006  	0.299172 
3264.180664  	0.299269 
3265.612322  	0.299597 
3267.043980  	0.299217 
3268.475638  	0.298915 
3269.907297  	0.299011 
3271.338955  	0.298868 
3272.770613  	0.298641 
3274.202271  	0.298188 
3275.633929  	0.298082 
3277.065587  	0.298658 
3278.497246  	0.298537 
3279.928904  	0.297805 
3281.360562  	0.297361 
3282.792220  	0.297425 
3284.223878  	0.298130 
3285.655537  	0.298418 
3287.087195  	0.298129 
3288.518853  	0.298068 
3289.950511  	0.297582 
3291.382169  	0.297056 
3292.813828  	0.297188 
3294.245486  	0.297155 
3295.677144  	0.297128 
3297.108802  	0.297271 
3298.540460  	0.297106 
3299.972118  	0.296973 
3301.403777  	0.297043 
3302.835435  	0.297197 
3304.267093  	0.296989 
3305.698751  	0.296410 
3307.130409  	0.296355 
3308.562068  	0.296350 
3309.993726  	0.296143 
3311.425384  	0.296268 
3312.857042  	0.295920 
3314.288700  	0.295848 
3315.720359  	0.296949 
3317.152017  	0.297263 
3318.583675  	0.296408 
3320.015333  	0.295765 
3321.446991  	0.295880 
3322.878649  	0.296688 
3324.310308  	0.296737 
3325.741966  	0.295918 
3327.173624  	0.295875 
3328.605282  	0.295985 
3330.036940  	0.295494 
3331.468599  	0.295177 
3332.900257  	0.295261 
3334.331915  	0.295546 
3335.763573  	0.295412 
3337.195231  	0.294933 
3338.626889  	0.295019 
3340.058548  	0.295285 
3341.490206  	0.295279 
3342.921864  	0.295207 
3344.353522  	0.295064 
3345.785180  	0.294983 
3347.216839  	0.294804 
3348.648497  	0.294801 
3350.080155  	0.295079 
3351.511813  	0.294509 
3352.943471  	0.293701 
3354.375130  	0.293902 
3355.806788  	0.294349 
3357.238446  	0.294631 
3358.670104  	0.294592 
3360.101762  	0.293971 
3361.533420  	0.293568 
3362.965079  	0.293525 
3364.396737  	0.293490 
3365.828395  	0.293468 
3367.260053  	0.293317 
3368.691711  	0.293432 
3370.123370  	0.293614 
3371.555028  	0.293328 
3372.986686  	0.293287 
3374.418344  	0.293669 
3375.850002  	0.293809 
3377.281660  	0.293352 
3378.713319  	0.292609 
3380.144977  	0.292604 
3381.576635  	0.292966 
3383.008293  	0.292816 
3384.439951  	0.292768 
3385.871610  	0.292657 
3387.303268  	0.292272 
3388.734926  	0.292248 
3390.166584  	0.292008 
3391.598242  	0.291605 
3393.029901  	0.291888 
3394.461559  	0.292331 
3395.893217  	0.292529 
3397.324875  	0.292671 
3398.756533  	0.292660 
3400.188191  	0.292419 
3401.619850  	0.292195 
3403.051508  	0.292431 
3404.483166  	0.292547 
3405.914824  	0.292274 
3407.346482  	0.292437 
3408.778141  	0.292451 
3410.209799  	0.292183 
3411.641457  	0.292378 
3413.073115  	0.292025 
3414.504773  	0.291579 
3415.936432  	0.292130 
3417.368090  	0.292114 
3418.799748  	0.291500 
3420.231406  	0.291501 
3421.663064  	0.291580 
3423.094722  	0.291505 
3424.526381  	0.291202 
3425.958039  	0.290687 
3427.389697  	0.290665 
3428.821355  	0.290834 
3430.253013  	0.290798 
3431.684672  	0.290717 
3433.116330  	0.290418 
3434.547988  	0.289986 
3435.979646  	0.289518 
3437.411304  	0.289328 
3438.842962  	0.289617 
3440.274621  	0.289705 
3441.706279  	0.289808 
3443.137937  	0.290407 
3444.569595  	0.290586 
3446.001253  	0.289824 
3447.432912  	0.288787 
3448.864570  	0.288697 
3450.296228  	0.289183 
3451.727886  	0.288959 
3453.159544  	0.288908 
3454.591203  	0.289370 
3456.022861  	0.289016 
3457.454519  	0.288800 
3458.886177  	0.289259 
3460.317835  	0.288653 
3461.749493  	0.287525 
3463.181152  	0.287682 
3464.612810  	0.288505 
3466.044468  	0.288615 
3467.476126  	0.288180 
3468.907784  	0.287883 
3470.339443  	0.287782 
3471.771101  	0.287989 
3473.202759  	0.287961 
3474.634417  	0.287339 
3476.066075  	0.287618 
3477.497734  	0.288343 
3478.929392  	0.287921 
3480.361050  	0.287790 
3481.792708  	0.288114 
3483.224366  	0.287589 
3484.656024  	0.287249 
3486.087683  	0.286954 
3487.519341  	0.286430 
3488.950999  	0.286868 
3490.382657  	0.287267 
3491.814315  	0.286959 
3493.245974  	0.286797 
3494.677632  	0.286480 
3496.109290  	0.286198 
3497.540948  	0.286308 
3498.972606  	0.286300 
3500.404264  	0.286455 
3501.835923  	0.286816 
3503.267581  	0.286681 
3504.699239  	0.286140 
3506.130897  	0.285971 
3507.562555  	0.286161 
3508.994214  	0.285876 
3510.425872  	0.285380 
3511.857530  	0.285547 
3513.289188  	0.285631 
3514.720846  	0.285412 
3516.152505  	0.285467 
3517.584163  	0.285481 
3519.015821  	0.285432 
3520.447479  	0.285557 
3521.879137  	0.285385 
3523.310795  	0.284929 
3524.742454  	0.285224 
3526.174112  	0.286205 
3527.605770  	0.286460 
3529.037428  	0.286202 
3530.469086  	0.286027 
3531.900745  	0.285137 
3533.332403  	0.284695 
3534.764061  	0.285181 
3536.195719  	0.284803 
3537.627377  	0.284729 
3539.059035  	0.285288 
3540.490694  	0.284234 
3541.922352  	0.283331 
3543.354010  	0.283961 
3544.785668  	0.284065 
3546.217326  	0.283480 
3547.648985  	0.283226 
3549.080643  	0.283557 
3550.512301  	0.283949 
3551.943959  	0.283431 
3553.375617  	0.282914 
3554.807276  	0.283102 
3556.238934  	0.283139 
3557.670592  	0.283203 
3559.102250  	0.283012 
3560.533908  	0.282705 
3561.965566  	0.282784 
3563.397225  	0.282625 
3564.828883  	0.282959 
3566.260541  	0.283280 
3567.692199  	0.281785 
3569.123857  	0.281330 
3570.555516  	0.281658 
3571.987174  	0.281174 
3573.418832  	0.281487 
3574.850490  	0.281880 
3576.282148  	0.281354 
3577.713807  	0.280986 
3579.145465  	0.280515 
3580.577123  	0.280362 
3582.008781  	0.280768 
3583.440439  	0.281034 
3584.872097  	0.281780 
3586.303756  	0.281764 
3587.735414  	0.279682 
3589.167072  	0.279039 
3590.598730  	0.279946 
3592.030388  	0.280024 
3593.462047  	0.279854 
3594.893705  	0.279991 
3596.325363  	0.280025 
3597.757021  	0.279949 
3599.188679  	0.280502 
3600.620337  	0.280802 
3602.051996  	0.279850 
3603.483654  	0.279641 
3604.915312  	0.279987 
3606.346970  	0.279601 
3607.778628  	0.279647 
3609.210287  	0.279706 
3610.641945  	0.279642 
3612.073603  	0.280424 
3613.505261  	0.279928 
3614.936919  	0.279069 
3616.368578  	0.280057 
3617.800236  	0.280324 
3619.231894  	0.279047 
3620.663552  	0.278009 
3622.095210  	0.277979 
3623.526868  	0.278348 
3624.958527  	0.278687 
3626.390185  	0.279978 
3627.821843  	0.280536 
3629.253501  	0.276691 
3630.685159  	0.276525 
3632.116818  	0.279210 
3633.548476  	0.278640 
3634.980134  	0.278036 
3636.411792  	0.278319 
3637.843450  	0.277310 
3639.275109  	0.277336 
3640.706767  	0.277878 
3642.138425  	0.277219 
3643.570083  	0.277483 
3645.001741  	0.278247 
3646.433399  	0.278089 
3647.865058  	0.278072 
3649.296716  	0.278595 
3650.728374  	0.277370 
3652.160032  	0.275903 
3653.591690  	0.277127 
3655.023349  	0.278066 
3656.455007  	0.276694 
3657.886665  	0.276359 
3659.318323  	0.277074 
3660.749981  	0.276588 
3662.181639  	0.276640 
3663.613298  	0.276681 
3665.044956  	0.276093 
3666.476614  	0.277086 
3667.908272  	0.278528 
3669.339930  	0.277391 
3670.771589  	0.274571 
3672.203247  	0.276476 
3673.634905  	0.278739 
3675.066563  	0.275494 
3676.498221  	0.271116 
3677.929880  	0.275221 
3679.361538  	0.275639 
3680.793196  	0.274659 
3682.224854  	0.275592 
3683.656512  	0.274833 
3685.088170  	0.274607 
3686.519829  	0.276114 
3687.951487  	0.275384 
3689.383145  	0.274238 
3690.814803  	0.274437 
3692.246461  	0.273280 
3693.678120  	0.273645 
3695.109778  	0.274656 
3696.541436  	0.274683 
3697.973094  	0.274860 
3699.404752  	0.274806 
3700.836411  	0.274091 
3702.268069  	0.273419 
3703.699727  	0.273483 
3705.131385  	0.273878 
3706.563043  	0.273777 
3707.994701  	0.273692 
3709.426360  	0.273729 
3710.858018  	0.272996 
3712.289676  	0.272411 
3713.721334  	0.271963 
3715.152992  	0.271884 
3716.584651  	0.272729 
3718.016309  	0.272878 
3719.447967  	0.272756 
3720.879625  	0.273657 
3722.311283  	0.273803 
3723.742941  	0.273612 
3725.174600  	0.273566 
3726.606258  	0.272215 
3728.037916  	0.272291 
3729.469574  	0.273527 
3730.901232  	0.272621 
3732.332891  	0.271919 
3733.764549  	0.274036 
3735.196207  	0.273302 
3736.627865  	0.269726 
3738.059523  	0.270444 
3739.491182  	0.270973 
3740.922840  	0.270898 
3742.354498  	0.272960 
3743.786156  	0.272978 
3745.217814  	0.269080 
3746.649472  	0.271820 
3748.081131  	0.272882 
3749.512789  	0.270791 
3750.944447  	0.271157 
3752.376105  	0.270753 
3753.807763  	0.269734 
3755.239422  	0.271176 
3756.671080  	0.270897 
3758.102738  	0.270101 
3759.534396  	0.270468 
3760.966054  	0.270170 
3762.397712  	0.271467 
3763.829371  	0.271981 
3765.261029  	0.269992 
3766.692687  	0.270561 
3768.124345  	0.271891 
3769.556003  	0.270031 
3770.987662  	0.268810 
3772.419320  	0.269582 
3773.850978  	0.269778 
3775.282636  	0.270008 
3776.714294  	0.270672 
3778.145953  	0.271007 
3779.577611  	0.270201 
3781.009269  	0.270037 
3782.440927  	0.270860 
3783.872585  	0.270247 
3785.304243  	0.269468 
3786.735902  	0.269631 
3788.167560  	0.269396 
3789.599218  	0.269920 
3791.030876  	0.269994 
3792.462534  	0.268704 
3793.894193  	0.268834 
3795.325851  	0.268962 
3796.757509  	0.267905 
3798.189167  	0.269550 
3799.620825  	0.271453 
3801.052484  	0.269679 
3802.484142  	0.266722 
3803.915800  	0.269170 
3805.347458  	0.270583 
3806.779116  	0.268106 
3808.210774  	0.267047 
3809.642433  	0.269184 
3811.074091  	0.269052 
3812.505749  	0.269222 
3813.937407  	0.270237 
3815.369065  	0.268158 
3816.800724  	0.265996 
3818.232382  	0.268868 
3819.664040  	0.269858 
3821.095698  	0.267457 
3822.527356  	0.266656 
3823.959014  	0.268980 
3825.390673  	0.268895 
3826.822331  	0.267226 
3828.253989  	0.268179 
3829.685647  	0.268967 
3831.117305  	0.267674 
3832.548964  	0.267668 
3833.980622  	0.268409 
3835.412280  	0.268323 
3836.843938  	0.268245 
3838.275596  	0.266902 
3839.707255  	0.266358 
3841.138913  	0.267668 
3842.570571  	0.267459 
3844.002229  	0.266570 
3845.433887  	0.266725 
3846.865545  	0.267258 
3848.297204  	0.267512 
3849.728862  	0.267892 
3851.160520  	0.269002 
3852.592178  	0.268801 
3854.023836  	0.265247 
3855.455495  	0.265581 
3856.887153  	0.266503 
3858.318811  	0.266651 
3859.750469  	0.267386 
3861.182127  	0.267138 
3862.613786  	0.266827 
3864.045444  	0.266814 
3865.477102  	0.265462 
3866.908760  	0.266741 
3868.340418  	0.267784 
3869.772076  	0.264711 
3871.203735  	0.264654 
3872.635393  	0.267144 
3874.067051  	0.265481 
3875.498709  	0.264575 
3876.930367  	0.266194 
3878.362026  	0.265926 
3879.793684  	0.264601 
3881.225342  	0.264657 
3882.657000  	0.266539 
3884.088658  	0.266928 
3885.520316  	0.264185 
3886.951975  	0.263179 
3888.383633  	0.265823 
3889.815291  	0.266179 
3891.246949  	0.264568 
3892.678607  	0.264209 
3894.110266  	0.264526 
3895.541924  	0.264747 
3896.973582  	0.265720 
3898.405240  	0.266157 
3899.836898  	0.265005 
3901.268557  	0.264625 
3902.700215  	0.265052 
3904.131873  	0.264239 
3905.563531  	0.263518 
3906.995189  	0.263696 
3908.426847  	0.264088 
3909.858506  	0.264353 
3911.290164  	0.263668 
3912.721822  	0.263376 
3914.153480  	0.264388 
3915.585138  	0.264589 
3917.016797  	0.264236 
3918.448455  	0.264295 
3919.880113  	0.263634 
3921.311771  	0.263625 
3922.743429  	0.264267 
3924.175088  	0.263555 
3925.606746  	0.263048 
3927.038404  	0.263749 
3928.470062  	0.263610 
3929.901720  	0.263202 
3931.333378  	0.263370 
3932.765037  	0.263010 
3934.196695  	0.262465 
3935.628353  	0.262655 
3937.060011  	0.262792 
3938.491669  	0.262836 
3939.923328  	0.263411 
3941.354986  	0.263647 
3942.786644  	0.262925 
3944.218302  	0.262451 
3945.649960  	0.262487 
3947.081618  	0.262231 
3948.513277  	0.261976 
3949.944935  	0.262109 
3951.376593  	0.262370 
3952.808251  	0.262452 
3954.239909  	0.262313 
3955.671568  	0.262137 
3957.103226  	0.261962 
3958.534884  	0.261866 
3959.966542  	0.261706 
3961.398200  	0.261287 
3962.829859  	0.261257 
3964.261517  	0.261698 
3965.693175  	0.261785 
3967.124833  	0.261556 
3968.556491  	0.261403 
3969.988149  	0.261531 
3971.419808  	0.261661 
3972.851466  	0.261210 
3974.283124  	0.260892 
3975.714782  	0.261362 
3977.146440  	0.261737 
3978.578099  	0.261576 
3980.009757  	0.261143 
3981.441415  	0.260774 
3982.873073  	0.260768 
3984.304731  	0.260721 
3985.736389  	0.260555 
3987.168048  	0.260834 
3988.599706  	0.261402 
3990.031364  	0.261552 
3991.463022  	0.261164 
3992.894680  	0.260931 
3994.326339  	0.260745 
3995.757997  	0.260199 
3997.189655  	0.260201 
3998.621313  	0.260442 
4000.052971  	0.259948 