##TITLE=No Description
##DATA TYPE=INFRARED SPECTRUM
##XUNITS=1/CM
##YUNITS=Abs
399.432634  	0.091784 
400.864292  	0.083780 
402.295950  	0.086651 
403.727608  	0.094985 
405.159267  	0.104477 
406.590925  	0.086943 
408.022583  	0.067531 
409.454241  	0.076393 
410.885899  	0.082529 
412.317558  	0.068461 
413.749216  	0.045894 
415.180874  	0.043190 
416.612532  	0.062327 
418.044190  	0.059738 
419.475848  	0.033046 
420.907507  	0.038303 
422.339165  	0.045639 
423.770823  	0.053608 
425.202481  	0.055927 
426.634139  	0.039087 
428.065798  	0.027281 
429.497456  	0.030772 
430.929114  	0.040490 
432.360772  	0.054477 
433.792430  	0.054796 
435.224089  	0.045373 
436.655747  	0.047061 
438.087405  	0.050609 
439.519063  	0.049722 
440.950721  	0.052310 
442.382379  	0.060803 
443.814038  	0.068373 
445.245696  	0.063565 
446.677354  	0.056694 
448.109012  	0.060827 
449.540670  	0.063457 
450.972329  	0.066588 
452.403987  	0.074391 
453.835645  	0.069149 
455.267303  	0.062928 
456.698961  	0.068240 
458.130619  	0.069304 
459.562278  	0.066172 
460.993936  	0.065377 
462.425594  	0.059274 
463.857252  	0.059510 
465.288910  	0.069272 
466.720569  	0.072016 
468.152227  	0.068510 
469.583885  	0.069534 
471.015543  	0.070892 
472.447201  	0.069348 
473.878860  	0.071656 
475.310518  	0.076884 
476.742176  	0.079676 
478.173834  	0.081402 
479.605492  	0.087631 
481.037150  	0.095347 
482.468809  	0.096025 
483.900467  	0.096036 
485.332125  	0.107262 
486.763783  	0.117458 
488.195441  	0.114085 
489.627100  	0.108469 
491.058758  	0.109345 
492.490416  	0.110534 
493.922074  	0.111815 
495.353732  	0.119204 
496.785391  	0.131016 
498.217049  	0.141077 
499.648707  	0.148459 
501.080365  	0.160923 
502.512023  	0.185485 
503.943681  	0.215859 
505.375340  	0.246120 
506.806998  	0.277500 
508.238656  	0.298577 
509.670314  	0.292645 
511.101972  	0.266508 
512.533631  	0.242662 
513.965289  	0.227719 
515.396947  	0.212981 
516.828605  	0.193785 
518.260263  	0.170067 
519.691921  	0.147510 
521.123580  	0.131387 
522.555238  	0.118825 
523.986896  	0.107095 
525.418554  	0.098800 
526.850212  	0.093657 
528.281871  	0.087418 
529.713529  	0.081734 
531.145187  	0.081424 
532.576845  	0.084059 
534.008503  	0.083771 
535.440162  	0.082238 
536.871820  	0.082237 
538.303478  	0.082938 
539.735136  	0.084468 
541.166794  	0.085219 
542.598452  	0.084569 
544.030111  	0.084726 
545.461769  	0.083389 
546.893427  	0.081343 
548.325085  	0.083435 
549.756743  	0.085592 
551.188402  	0.085616 
552.620060  	0.087545 
554.051718  	0.087663 
555.483376  	0.084128 
556.915034  	0.083217 
558.346692  	0.084903 
559.778351  	0.086479 
561.210009  	0.088278 
562.641667  	0.088716 
564.073325  	0.088867 
565.504983  	0.091691 
566.936642  	0.094542 
568.368300  	0.094852 
569.799958  	0.094801 
571.231616  	0.096044 
572.663274  	0.098013 
574.094933  	0.099489 
575.526591  	0.100649 
576.958249  	0.102999 
578.389907  	0.104647 
579.821565  	0.103507 
581.253223  	0.102709 
582.684882  	0.103775 
584.116540  	0.103740 
585.548198  	0.102993 
586.979856  	0.103046 
588.411514  	0.103384 
589.843173  	0.104368 
591.274831  	0.105270 
592.706489  	0.106033 
594.138147  	0.108290 
595.569805  	0.109931 
597.001464  	0.110365 
598.433122  	0.113128 
599.864780  	0.117835 
601.296438  	0.122793 
602.728096  	0.129538 
604.159754  	0.138496 
605.591413  	0.148679 
607.023071  	0.159654 
608.454729  	0.168875 
609.886387  	0.171619 
611.318045  	0.168279 
612.749704  	0.162143 
614.181362  	0.154543 
615.613020  	0.147018 
617.044678  	0.141135 
618.476336  	0.137249 
619.907994  	0.135021 
621.339653  	0.134409 
622.771311  	0.134557 
624.202969  	0.135421 
625.634627  	0.137176 
627.066285  	0.138031 
628.497944  	0.138906 
629.929602  	0.141913 
631.361260  	0.145502 
632.792918  	0.149024 
634.224576  	0.153384 
635.656235  	0.156627 
637.087893  	0.157333 
638.519551  	0.157966 
639.951209  	0.159691 
641.382867  	0.160271 
642.814525  	0.159236 
644.246184  	0.159019 
645.677842  	0.160310 
647.109500  	0.161704 
648.541158  	0.162565 
649.972816  	0.162517 
651.404475  	0.162011 
652.836133  	0.162600 
654.267791  	0.163322 
655.699449  	0.162305 
657.131107  	0.161336 
658.562766  	0.161568 
659.994424  	0.161345 
661.426082  	0.161140 
662.857740  	0.160890 
664.289398  	0.159393 
665.721056  	0.159447 
667.152715  	0.162249 
668.584373  	0.160954 
670.016031  	0.156060 
671.447689  	0.153959 
672.879347  	0.152271 
674.311006  	0.151329 
675.742664  	0.150498 
677.174322  	0.148183 
678.605980  	0.145333 
680.037638  	0.142547 
681.469296  	0.140274 
682.900955  	0.138970 
684.332613  	0.137133 
685.764271  	0.134222 
687.195929  	0.131259 
688.627587  	0.128955 
690.059246  	0.127104 
691.490904  	0.124546 
692.922562  	0.121393 
694.354220  	0.118678 
695.785878  	0.117053 
697.217537  	0.116613 
698.649195  	0.115995 
700.080853  	0.115056 
701.512511  	0.114995 
702.944169  	0.115710 
704.375827  	0.117471 
705.807486  	0.119555 
707.239144  	0.119737 
708.670802  	0.118529 
710.102460  	0.116926 
711.534118  	0.114084 
712.965777  	0.110775 
714.397435  	0.108309 
715.829093  	0.107013 
717.260751  	0.106906 
718.692409  	0.106994 
720.124067  	0.106861 
721.555726  	0.106534 
722.987384  	0.105621 
724.419042  	0.105107 
725.850700  	0.105494 
727.282358  	0.105758 
728.714017  	0.105926 
730.145675  	0.105927 
731.577333  	0.105482 
733.008991  	0.105716 
734.440649  	0.106947 
735.872308  	0.108645 
737.303966  	0.111056 
738.735624  	0.114313 
740.167282  	0.118658 
741.598940  	0.124387 
743.030598  	0.131133 
744.462257  	0.138550 
745.893915  	0.145384 
747.325573  	0.150198 
748.757231  	0.153476 
750.188889  	0.154973 
751.620548  	0.154165 
753.052206  	0.152632 
754.483864  	0.151439 
755.915522  	0.151197 
757.347180  	0.153455 
758.778839  	0.158340 
760.210497  	0.165035 
761.642155  	0.174698 
763.073813  	0.188940 
764.505471  	0.207216 
765.937129  	0.227028 
767.368788  	0.244808 
768.800446  	0.256840 
770.232104  	0.260769 
771.663762  	0.254495 
773.095420  	0.235893 
774.527079  	0.210637 
775.958737  	0.186520 
777.390395  	0.164940 
778.822053  	0.147688 
780.253711  	0.135635 
781.685369  	0.125312 
783.117028  	0.113887 
784.548686  	0.100858 
785.980344  	0.087808 
787.412002  	0.076923 
788.843660  	0.068686 
790.275319  	0.063345 
791.706977  	0.060527 
793.138635  	0.059225 
794.570293  	0.059946 
796.001951  	0.062738 
797.433610  	0.066600 
798.865268  	0.072323 
800.296926  	0.080279 
801.728584  	0.089306 
803.160242  	0.099832 
804.591900  	0.111688 
806.023559  	0.123327 
807.455217  	0.135107 
808.886875  	0.147688 
810.318533  	0.160418 
811.750191  	0.171790 
813.181850  	0.181104 
814.613508  	0.188554 
816.045166  	0.191027 
817.476824  	0.185705 
818.908482  	0.173901 
820.340141  	0.157618 
821.771799  	0.140055 
823.203457  	0.124722 
824.635115  	0.112893 
826.066773  	0.104158 
827.498431  	0.097851 
828.930090  	0.093496 
830.361748  	0.090520 
831.793406  	0.088280 
833.225064  	0.086706 
834.656722  	0.085929 
836.088381  	0.085743 
837.520039  	0.086333 
838.951697  	0.088094 
840.383355  	0.091148 
841.815013  	0.095442 
843.246671  	0.100008 
844.678330  	0.103891 
846.109988  	0.107109 
847.541646  	0.108961 
848.973304  	0.108469 
850.404962  	0.105669 
851.836621  	0.101144 
853.268279  	0.095842 
854.699937  	0.090622 
856.131595  	0.085710 
857.563253  	0.081650 
858.994912  	0.079508 
860.426570  	0.078462 
861.858228  	0.076207 
863.289886  	0.072278 
864.721544  	0.067196 
866.153202  	0.060383 
867.584861  	0.051917 
869.016519  	0.043003 
870.448177  	0.034510 
871.879835  	0.027068 
873.311493  	0.021464 
874.743152  	0.017654 
876.174810  	0.014782 
877.606468  	0.012977 
879.038126  	0.012396 
880.469784  	0.012233 
881.901443  	0.012298 
883.333101  	0.012614 
884.764759  	0.012871 
886.196417  	0.013380 
887.628075  	0.014264 
889.059733  	0.015092 
890.491392  	0.015957 
891.923050  	0.016977 
893.354708  	0.017965 
894.786366  	0.019201 
896.218024  	0.020674 
897.649683  	0.021790 
899.081341  	0.022848 
900.512999  	0.024434 
901.944657  	0.026234 
903.376315  	0.028069 
904.807973  	0.030413 
906.239632  	0.033839 
907.671290  	0.038372 
909.102948  	0.043579 
910.534606  	0.049419 
911.966264  	0.055206 
913.397923  	0.059469 
914.829581  	0.061434 
916.261239  	0.060249 
917.692897  	0.056502 
919.124555  	0.052436 
920.556214  	0.048688 
921.987872  	0.045772 
923.419530  	0.044388 
924.851188  	0.043525 
926.282846  	0.043550 
927.714504  	0.045612 
929.146163  	0.048323 
930.577821  	0.050923 
932.009479  	0.053901 
933.441137  	0.056746 
934.872795  	0.059490 
936.304454  	0.062785 
937.736112  	0.066774 
939.167770  	0.070803 
940.599428  	0.073913 
942.031086  	0.076523 
943.462744  	0.079207 
944.894403  	0.081800 
946.326061  	0.084578 
947.757719  	0.087427 
949.189377  	0.090327 
950.621035  	0.093747 
952.052694  	0.097199 
953.484352  	0.100424 
954.916010  	0.103612 
956.347668  	0.106497 
957.779326  	0.109036 
959.210985  	0.110826 
960.642643  	0.111622 
962.074301  	0.111914 
963.505959  	0.111447 
964.937617  	0.109921 
966.369275  	0.108122 
967.800934  	0.106963 
969.232592  	0.106388 
970.664250  	0.105993 
972.095908  	0.106406 
973.527566  	0.108123 
974.959225  	0.110658 
976.390883  	0.113948 
977.822541  	0.117419 
979.254199  	0.120070 
980.685857  	0.122067 
982.117516  	0.122896 
983.549174  	0.121916 
984.980832  	0.119579 
986.412490  	0.116096 
987.844148  	0.112552 
989.275806  	0.110263 
990.707465  	0.108972 
992.139123  	0.108514 
993.570781  	0.109015 
995.002439  	0.110309 
996.434097  	0.112523 
997.865756  	0.115220 
999.297414  	0.118176 
1000.729072  	0.121915 
1002.160730  	0.126115 
1003.592388  	0.130529 
1005.024046  	0.135561 
1006.455705  	0.141343 
1007.887363  	0.147833 
1009.319021  	0.155214 
1010.750679  	0.164406 
1012.182337  	0.175829 
1013.613996  	0.190707 
1015.045654  	0.212372 
1016.477312  	0.236678 
1017.908970  	0.248549 
1019.340628  	0.237980 
1020.772287  	0.211566 
1022.203945  	0.184881 
1023.635603  	0.166936 
1025.067261  	0.159287 
1026.498919  	0.160901 
1027.930577  	0.167934 
1029.362236  	0.176884 
1030.793894  	0.187153 
1032.225552  	0.197146 
1033.657210  	0.206574 
1035.088868  	0.216515 
1036.520527  	0.224753 
1037.952185  	0.231167 
1039.383843  	0.237853 
1040.815501  	0.245287 
1042.247159  	0.254609 
1043.678818  	0.265737 
1045.110476  	0.278426 
1046.542134  	0.293285 
1047.973792  	0.309352 
1049.405450  	0.327626 
1050.837108  	0.347291 
1052.268767  	0.366219 
1053.700425  	0.387498 
1055.132083  	0.409108 
1056.563741  	0.428181 
1057.995399  	0.447563 
1059.427058  	0.464129 
1060.858716  	0.477018 
1062.290374  	0.486926 
1063.722032  	0.491515 
1065.153690  	0.494891 
1066.585348  	0.496698 
1068.017007  	0.496490 
1069.448665  	0.497244 
1070.880323  	0.495662 
1072.311981  	0.494897 
1073.743639  	0.495548 
1075.175298  	0.492163 
1076.606956  	0.488532 
1078.038614  	0.481241 
1079.470272  	0.467221 
1080.901930  	0.451036 
1082.333589  	0.426692 
1083.765247  	0.394754 
1085.196905  	0.361200 
1086.628563  	0.327772 
1088.060221  	0.302103 
1089.491879  	0.287341 
1090.923538  	0.280732 
1092.355196  	0.281359 
1093.786854  	0.285190 
1095.218512  	0.289892 
1096.650170  	0.296462 
1098.081829  	0.302183 
1099.513487  	0.308208 
1100.945145  	0.315490 
1102.376803  	0.320686 
1103.808461  	0.324921 
1105.240120  	0.326373 
1106.671778  	0.323230 
1108.103436  	0.318733 
1109.535094  	0.311881 
1110.966752  	0.302970 
1112.398410  	0.291837 
1113.830069  	0.275928 
1115.261727  	0.258866 
1116.693385  	0.242601 
1118.125043  	0.226407 
1119.556701  	0.211963 
1120.988360  	0.198421 
1122.420018  	0.184489 
1123.851676  	0.170571 
1125.283334  	0.156216 
1126.714992  	0.141759 
1128.146650  	0.127862 
1129.578309  	0.114610 
1131.009967  	0.102338 
1132.441625  	0.091270 
1133.873283  	0.081596 
1135.304941  	0.073413 
1136.736600  	0.066197 
1138.168258  	0.059750 
1139.599916  	0.054538 
1141.031574  	0.050205 
1142.463232  	0.046417 
1143.894891  	0.043452 
1145.326549  	0.040803 
1146.758207  	0.038397 
1148.189865  	0.036494 
1149.621523  	0.034649 
1151.053181  	0.033157 
1152.484840  	0.032133 
1153.916498  	0.031353 
1155.348156  	0.031241 
1156.779814  	0.031406 
1158.211472  	0.031923 
1159.643131  	0.033426 
1161.074789  	0.035234 
1162.506447  	0.037485 
1163.938105  	0.040565 
1165.369763  	0.043857 
1166.801421  	0.047657 
1168.233080  	0.052325 
1169.664738  	0.057915 
1171.096396  	0.064425 
1172.528054  	0.071571 
1173.959712  	0.080042 
1175.391371  	0.090178 
1176.823029  	0.101939 
1178.254687  	0.115653 
1179.686345  	0.129877 
1181.118003  	0.142464 
1182.549662  	0.152112 
1183.981320  	0.160248 
1185.412978  	0.169885 
1186.844636  	0.181333 
1188.276294  	0.195152 
1189.707952  	0.211721 
1191.139611  	0.229352 
1192.571269  	0.249105 
1194.002927  	0.270860 
1195.434585  	0.293821 
1196.866243  	0.320870 
1198.297902  	0.350778 
1199.729560  	0.382007 
1201.161218  	0.413139 
1202.592876  	0.437494 
1204.024534  	0.454095 
1205.456193  	0.461644 
1206.887851  	0.461282 
1208.319509  	0.462012 
1209.751167  	0.465988 
1211.182825  	0.477306 
1212.614483  	0.499112 
1214.046142  	0.523830 
1215.477800  	0.549293 
1216.909458  	0.570531 
1218.341116  	0.581116 
1219.772774  	0.586356 
1221.204433  	0.582166 
1222.636091  	0.569984 
1224.067749  	0.556679 
1225.499407  	0.538676 
1226.931065  	0.520568 
1228.362723  	0.502917 
1229.794382  	0.482086 
1231.226040  	0.462120 
1232.657698  	0.439799 
1234.089356  	0.414631 
1235.521014  	0.389582 
1236.952673  	0.361234 
1238.384331  	0.331940 
1239.815989  	0.303575 
1241.247647  	0.275239 
1242.679305  	0.250298 
1244.110964  	0.229864 
1245.542622  	0.214838 
1246.974280  	0.207522 
1248.405938  	0.206848 
1249.837596  	0.210471 
1251.269254  	0.214502 
1252.700913  	0.213181 
1254.132571  	0.204869 
1255.564229  	0.189509 
1256.995887  	0.168759 
1258.427545  	0.147021 
1259.859204  	0.126126 
1261.290862  	0.107280 
1262.722520  	0.091767 
1264.154178  	0.079341 
1265.585836  	0.069883 
1267.017495  	0.063496 
1268.449153  	0.059547 
1269.880811  	0.057376 
1271.312469  	0.056334 
1272.744127  	0.055906 
1274.175785  	0.056059 
1275.607444  	0.055882 
1277.039102  	0.054935 
1278.470760  	0.054020 
1279.902418  	0.052774 
1281.334076  	0.051051 
1282.765735  	0.049742 
1284.197393  	0.048859 
1285.629051  	0.048509 
1287.060709  	0.049004 
1288.492367  	0.050706 
1289.924025  	0.054566 
1291.355684  	0.060426 
1292.787342  	0.068159 
1294.219000  	0.078207 
1295.650658  	0.090547 
1297.082316  	0.106051 
1298.513975  	0.124739 
1299.945633  	0.146771 
1301.377291  	0.172314 
1302.808949  	0.198641 
1304.240607  	0.224447 
1305.672266  	0.246154 
1307.103924  	0.260236 
1308.535582  	0.267017 
1309.967240  	0.263689 
1311.398898  	0.252987 
1312.830556  	0.238154 
1314.262215  	0.220964 
1315.693873  	0.206963 
1317.125531  	0.194361 
1318.557189  	0.178010 
1319.988847  	0.156560 
1321.420506  	0.131719 
1322.852164  	0.108099 
1324.283822  	0.087803 
1325.715480  	0.071373 
1327.147138  	0.058504 
1328.578796  	0.048350 
1330.010455  	0.040825 
1331.442113  	0.035082 
1332.873771  	0.031172 
1334.305429  	0.029084 
1335.737087  	0.028068 
1337.168746  	0.028129 
1338.600404  	0.028492 
1340.032062  	0.028760 
1341.463720  	0.029006 
1342.895378  	0.028884 
1344.327037  	0.028794 
1345.758695  	0.028755 
1347.190353  	0.029193 
1348.622011  	0.030952 
1350.053669  	0.033301 
1351.485327  	0.036166 
1352.916986  	0.039699 
1354.348644  	0.043217 
1355.780302  	0.046788 
1357.211960  	0.049777 
1358.643618  	0.052165 
1360.075277  	0.054510 
1361.506935  	0.056310 
1362.938593  	0.057835 
1364.370251  	0.059045 
1365.801909  	0.059790 
1367.233568  	0.060466 
1368.665226  	0.060214 
1370.096884  	0.059056 
1371.528542  	0.057936 
1372.960200  	0.056451 
1374.391858  	0.053943 
1375.823517  	0.051033 
1377.255175  	0.048653 
1378.686833  	0.046080 
1380.118491  	0.043026 
1381.550149  	0.040306 
1382.981808  	0.038293 
1384.413466  	0.037388 
1385.845124  	0.037320 
1387.276782  	0.037273 
1388.708440  	0.036740 
1390.140098  	0.036011 
1391.571757  	0.035004 
1393.003415  	0.034372 
1394.435073  	0.034785 
1395.866731  	0.036047 
1397.298389  	0.038606 
1398.730048  	0.042899 
1400.161706  	0.048682 
1401.593364  	0.056644 
1403.025022  	0.067776 
1404.456680  	0.083648 
1405.888339  	0.107690 
1407.319997  	0.139131 
1408.751655  	0.176624 
1410.183313  	0.220675 
1411.614971  	0.257287 
1413.046629  	0.271342 
1414.478288  	0.261765 
1415.909946  	0.225462 
1417.341604  	0.181819 
1418.773262  	0.134983 
1420.204920  	0.081272 
1421.636579  	0.055436 
1423.068237  	0.041619 
1424.499895  	0.029182 
1425.931553  	0.026893 
1427.363211  	0.028440 
1428.794870  	0.032318 
1430.226528  	0.040285 
1431.658186  	0.046576 
1433.089844  	0.052415 
1434.521502  	0.056921 
1435.953160  	0.057653 
1437.384819  	0.053687 
1438.816477  	0.048847 
1440.248135  	0.045322 
1441.679793  	0.043697 
1443.111451  	0.044464 
1444.543110  	0.047760 
1445.974768  	0.051426 
1447.406426  	0.052370 
1448.838084  	0.051570 
1450.269742  	0.050486 
1451.701400  	0.049366 
1453.133059  	0.049430 
1454.564717  	0.050255 
1455.996375  	0.051443 
1457.428033  	0.051472 
1458.859691  	0.049108 
1460.291350  	0.049653 
1461.723008  	0.052343 
1463.154666  	0.055631 
1464.586324  	0.060151 
1466.017982  	0.064223 
1467.449641  	0.068088 
1468.881299  	0.072701 
1470.312957  	0.076606 
1471.744615  	0.081802 
1473.176273  	0.088103 
1474.607931  	0.093200 
1476.039590  	0.101072 
1477.471248  	0.106988 
1478.902906  	0.107071 
1480.334564  	0.102205 
1481.766222  	0.091016 
1483.197881  	0.081686 
1484.629539  	0.074819 
1486.061197  	0.069255 
1487.492855  	0.067366 
1488.924513  	0.064745 
1490.356172  	0.064907 
1491.787830  	0.068545 
1493.219488  	0.071887 
1494.651146  	0.079964 
1496.082804  	0.089715 
1497.514462  	0.099176 
1498.946121  	0.114611 
1500.377779  	0.127999 
1501.809437  	0.143833 
1503.241095  	0.164709 
1504.672753  	0.181668 
1506.104412  	0.205801 
1507.536070  	0.245715 
1508.967728  	0.270608 
1510.399386  	0.304320 
1511.831044  	0.333749 
1513.262702  	0.356686 
1514.694361  	0.382282 
1516.126019  	0.392650 
1517.557677  	0.407124 
1518.989335  	0.431365 
1520.420993  	0.442854 
1521.852652  	0.474363 
1523.284310  	0.490919 
1524.715968  	0.496035 
1526.147626  	0.510037 
1527.579284  	0.497883 
1529.010943  	0.489803 
1530.442601  	0.481231 
1531.874259  	0.458848 
1533.305917  	0.440679 
1534.737575  	0.402339 
1536.169233  	0.374928 
1537.600892  	0.360516 
1539.032550  	0.324024 
1540.464208  	0.280556 
1541.895866  	0.249478 
1543.327524  	0.216257 
1544.759183  	0.191287 
1546.190841  	0.160628 
1547.622499  	0.137735 
1549.054157  	0.120607 
1550.485815  	0.094893 
1551.917473  	0.077317 
1553.349132  	0.065269 
1554.780790  	0.048201 
1556.212448  	0.038266 
1557.644106  	0.033159 
1559.075764  	0.022140 
1560.507423  	0.012130 
1561.939081  	0.009279 
1563.370739  	0.007436 
1564.802397  	0.005266 
1566.234055  	0.002659 
1567.665714  	0.001327 
1569.097372  	-0.000545 
1570.529030  	-0.004014 
1571.960688  	-0.005921 
1573.392346  	-0.006548 
1574.824004  	-0.006599 
1576.255663  	-0.006119 
1577.687321  	-0.004771 
1579.118979  	-0.002750 
1580.550637  	0.000717 
1581.982295  	0.006003 
1583.413954  	0.013067 
1584.845612  	0.023894 
1586.277270  	0.037863 
1587.708928  	0.055846 
1589.140586  	0.080103 
1590.572245  	0.105303 
1592.003903  	0.131675 
1593.435561  	0.154905 
1594.867219  	0.167235 
1596.298877  	0.174075 
1597.730535  	0.169537 
1599.162194  	0.157232 
1600.593852  	0.143686 
1602.025510  	0.125730 
1603.457168  	0.110339 
1604.888826  	0.098396 
1606.320485  	0.088219 
1607.752143  	0.083022 
1609.183801  	0.079520 
1610.615459  	0.077676 
1612.047117  	0.077168 
1613.478775  	0.073102 
1614.910434  	0.069190 
1616.342092  	0.061043 
1617.773750  	0.043958 
1619.205408  	0.033827 
1620.637066  	0.024522 
1622.068725  	0.015482 
1623.500383  	0.009802 
1624.932041  	0.003780 
1626.363699  	0.001380 
1627.795357  	0.001314 
1629.227016  	-0.000501 
1630.658674  	0.000679 
1632.090332  	0.002935 
1633.521990  	0.004196 
1634.953648  	0.008094 
1636.385306  	0.008803 
1637.816965  	0.005901 
1639.248623  	0.004556 
1640.680281  	0.000314 
1642.111939  	-0.001984 
1643.543597  	-0.002539 
1644.975256  	-0.004249 
1646.406914  	-0.003014 
1647.838572  	-0.004410 
1649.270230  	-0.005505 
1650.701888  	-0.002857 
1652.133547  	-0.002832 
1653.565205  	-0.001897 
1654.996863  	0.000583 
1656.428521  	0.000353 
1657.860179  	0.003883 
1659.291837  	0.006045 
1660.723496  	0.007213 
1662.155154  	0.012138 
1663.586812  	0.013759 
1665.018470  	0.016765 
1666.450128  	0.021878 
1667.881787  	0.023613 
1669.313445  	0.029776 
1670.745103  	0.035572 
1672.176761  	0.039113 
1673.608419  	0.049275 
1675.040077  	0.056617 
1676.471736  	0.066892 
1677.903394  	0.081460 
1679.335052  	0.091031 
1680.766710  	0.108780 
1682.198368  	0.127353 
1683.630027  	0.138823 
1685.061685  	0.176211 
1686.493343  	0.198877 
1687.925001  	0.220055 
1689.356659  	0.258194 
1690.788318  	0.289843 
1692.219976  	0.326931 
1693.651634  	0.369181 
1695.083292  	0.395085 
1696.514950  	0.430906 
1697.946608  	0.454622 
1699.378267  	0.450833 
1700.809925  	0.420230 
1702.241583  	0.387458 
1703.673241  	0.363656 
1705.104899  	0.331024 
1706.536558  	0.292374 
1707.968216  	0.263174 
1709.399874  	0.240314 
1710.831532  	0.218682 
1712.263190  	0.199408 
1713.694849  	0.185405 
1715.126507  	0.169963 
1716.558165  	0.155981 
1717.989823  	0.145751 
1719.421481  	0.132339 
1720.853139  	0.127754 
1722.284798  	0.126901 
1723.716456  	0.124271 
1725.148114  	0.125577 
1726.579772  	0.127631 
1728.011430  	0.127285 
1729.443089  	0.126368 
1730.874747  	0.119612 
1732.306405  	0.111983 
1733.738063  	0.102947 
1735.169721  	0.077771 
1736.601379  	0.065049 
1738.033038  	0.054908 
1739.464696  	0.037556 
1740.896354  	0.024433 
1742.328012  	0.013559 
1743.759670  	0.002575 
1745.191329  	-0.004032 
1746.622987  	-0.011332 
1748.054645  	-0.015806 
1749.486303  	-0.018918 
1750.917961  	-0.024360 
1752.349620  	-0.025418 
1753.781278  	-0.027600 
1755.212936  	-0.029604 
1756.644594  	-0.029207 
1758.076252  	-0.032040 
1759.507910  	-0.032551 
1760.939569  	-0.031617 
1762.371227  	-0.033982 
1763.802885  	-0.033626 
1765.234543  	-0.033695 
1766.666201  	-0.034480 
1768.097860  	-0.033184 
1769.529518  	-0.034674 
1770.961176  	-0.034726 
1772.392834  	-0.033092 
1773.824492  	-0.035716 
1775.256150  	-0.035027 
1776.687809  	-0.034654 
1778.119467  	-0.035827 
1779.551125  	-0.034410 
1780.982783  	-0.035232 
1782.414441  	-0.036132 
1783.846100  	-0.034730 
1785.277758  	-0.035692 
1786.709416  	-0.035498 
1788.141074  	-0.035026 
1789.572732  	-0.036005 
1791.004391  	-0.034642 
1792.436049  	-0.035086 
1793.867707  	-0.036515 
1795.299365  	-0.035359 
1796.731023  	-0.036331 
1798.162681  	-0.036473 
1799.594340  	-0.035764 
1801.025998  	-0.037093 
1802.457656  	-0.036496 
1803.889314  	-0.036653 
1805.320972  	-0.037540 
1806.752631  	-0.036657 
1808.184289  	-0.037461 
1809.615947  	-0.037618 
1811.047605  	-0.036636 
1812.479263  	-0.037806 
1813.910922  	-0.037604 
1815.342580  	-0.037864 
1816.774238  	-0.039103 
1818.205896  	-0.038131 
1819.637554  	-0.038621 
1821.069212  	-0.039022 
1822.500871  	-0.038221 
1823.932529  	-0.039315 
1825.364187  	-0.038925 
1826.795845  	-0.038846 
1828.227503  	-0.040049 
1829.659162  	-0.038721 
1831.090820  	-0.039431 
1832.522478  	-0.040505 
1833.954136  	-0.039892 
1835.385794  	-0.041232 
1836.817452  	-0.040990 
1838.249111  	-0.040322 
1839.680769  	-0.041771 
1841.112427  	-0.041060 
1842.544085  	-0.041097 
1843.975743  	-0.042166 
1845.407402  	-0.041093 
1846.839060  	-0.042072 
1848.270718  	-0.041823 
1849.702376  	-0.040959 
1851.134034  	-0.042118 
1852.565693  	-0.041474 
1853.997351  	-0.041938 
1855.429009  	-0.043046 
1856.860667  	-0.041375 
1858.292325  	-0.041728 
1859.723983  	-0.042200 
1861.155642  	-0.041719 
1862.587300  	-0.043247 
1864.018958  	-0.042522 
1865.450616  	-0.041686 
1866.882274  	-0.042124 
1868.313933  	-0.040380 
1869.745591  	-0.041612 
1871.177249  	-0.042434 
1872.608907  	-0.040809 
1874.040565  	-0.041981 
1875.472224  	-0.041801 
1876.903882  	-0.040806 
1878.335540  	-0.042204 
1879.767198  	-0.042024 
1881.198856  	-0.042439 
1882.630514  	-0.042671 
1884.062173  	-0.040995 
1885.493831  	-0.041598 
1886.925489  	-0.041095 
1888.357147  	-0.040016 
1889.788805  	-0.041280 
1891.220464  	-0.040055 
1892.652122  	-0.039878 
1894.083780  	-0.040978 
1895.515438  	-0.039689 
1896.947096  	-0.040040 
1898.378754  	-0.039777 
1899.810413  	-0.038798 
1901.242071  	-0.039852 
1902.673729  	-0.038436 
1904.105387  	-0.037907 
1905.537045  	-0.039356 
1906.968704  	-0.038424 
1908.400362  	-0.039205 
1909.832020  	-0.039647 
1911.263678  	-0.038769 
1912.695336  	-0.040888 
1914.126995  	-0.041171 
1915.558653  	-0.041234 
1916.990311  	-0.042767 
1918.421969  	-0.041071 
1919.853627  	-0.041252 
1921.285285  	-0.041417 
1922.716944  	-0.039715 
1924.148602  	-0.041838 
1925.580260  	-0.041867 
1927.011918  	-0.041035 
1928.443576  	-0.043028 
1929.875235  	-0.042162 
1931.306893  	-0.042725 
1932.738551  	-0.043847 
1934.170209  	-0.041862 
1935.601867  	-0.043582 
1937.033525  	-0.043839 
1938.465184  	-0.041620 
1939.896842  	-0.042439 
1941.328500  	-0.041080 
1942.760158  	-0.042088 
1944.191816  	-0.044708 
1945.623475  	-0.041932 
1947.055133  	-0.042304 
1948.486791  	-0.042050 
1949.918449  	-0.039297 
1951.350107  	-0.041541 
1952.781766  	-0.041847 
1954.213424  	-0.041863 
1955.645082  	-0.043257 
1957.076740  	-0.040439 
1958.508398  	-0.042324 
1959.940056  	-0.043744 
1961.371715  	-0.040250 
1962.803373  	-0.042293 
1964.235031  	-0.040865 
1965.666689  	-0.038639 
1967.098347  	-0.041998 
1968.530006  	-0.039817 
1969.961664  	-0.040146 
1971.393322  	-0.041665 
1972.824980  	-0.038918 
1974.256638  	-0.042402 
1975.688297  	-0.041496 
1977.119955  	-0.037746 
1978.551613  	-0.042203 
1979.983271  	-0.042199 
1981.414929  	-0.041929 
1982.846587  	-0.042640 
1984.278246  	-0.040807 
1985.709904  	-0.044304 
1987.141562  	-0.044606 
1988.573220  	-0.042076 
1990.004878  	-0.044327 
1991.436537  	-0.042002 
1992.868195  	-0.041672 
1994.299853  	-0.044776 
1995.731511  	-0.042025 
1997.163169  	-0.042164 
1998.594827  	-0.042886 
2000.026486  	-0.041839 
2001.458144  	-0.043929 
2002.889802  	-0.041166 
2004.321460  	-0.040378 
2005.753118  	-0.043676 
2007.184777  	-0.040151 
2008.616435  	-0.040536 
2010.048093  	-0.041926 
2011.479751  	-0.039793 
2012.911409  	-0.043422 
2014.343068  	-0.042464 
2015.774726  	-0.040084 
2017.206384  	-0.041690 
2018.638042  	-0.037714 
2020.069700  	-0.039468 
2021.501358  	-0.042218 
2022.933017  	-0.038406 
2024.364675  	-0.042280 
2025.796333  	-0.042826 
2027.227991  	-0.039093 
2028.659649  	-0.042788 
2030.091308  	-0.041226 
2031.522966  	-0.039581 
2032.954624  	-0.041330 
2034.386282  	-0.038917 
2035.817940  	-0.041604 
2037.249599  	-0.042349 
2038.681257  	-0.039735 
2040.112915  	-0.042528 
2041.544573  	-0.041241 
2042.976231  	-0.040544 
2044.407889  	-0.042540 
2045.839548  	-0.039396 
2047.271206  	-0.040750 
2048.702864  	-0.043238 
2050.134522  	-0.041653 
2051.566180  	-0.042940 
2052.997839  	-0.041995 
2054.429497  	-0.041170 
2055.861155  	-0.043344 
2057.292813  	-0.042911 
2058.724471  	-0.044633 
2060.156129  	-0.045573 
2061.587788  	-0.042481 
2063.019446  	-0.043617 
2064.451104  	-0.044619 
2065.882762  	-0.043782 
2067.314420  	-0.045326 
2068.746079  	-0.044729 
2070.177737  	-0.044347 
2071.609395  	-0.044351 
2073.041053  	-0.042678 
2074.472711  	-0.044108 
2075.904370  	-0.044784 
2077.336028  	-0.044011 
2078.767686  	-0.045821 
2080.199344  	-0.045497 
2081.631002  	-0.044539 
2083.062660  	-0.045060 
2084.494319  	-0.044554 
2085.925977  	-0.044851 
2087.357635  	-0.044405 
2088.789293  	-0.044325 
2090.220951  	-0.046166 
2091.652610  	-0.044844 
2093.084268  	-0.044012 
2094.515926  	-0.045466 
2095.947584  	-0.044973 
2097.379242  	-0.045990 
2098.810901  	-0.045893 
2100.242559  	-0.043457 
2101.674217  	-0.044414 
2103.105875  	-0.044860 
2104.537533  	-0.044772 
2105.969191  	-0.046106 
2107.400850  	-0.044894 
2108.832508  	-0.045032 
2110.264166  	-0.046214 
2111.695824  	-0.044820 
2113.127482  	-0.044726 
2114.559141  	-0.044641 
2115.990799  	-0.044470 
2117.422457  	-0.045446 
2118.854115  	-0.044297 
2120.285773  	-0.044482 
2121.717431  	-0.045657 
2123.149090  	-0.044466 
2124.580748  	-0.045041 
2126.012406  	-0.044856 
2127.444064  	-0.043485 
2128.875722  	-0.044801 
2130.307381  	-0.044045 
2131.739039  	-0.043513 
2133.170697  	-0.044909 
2134.602355  	-0.042869 
2136.034013  	-0.042510 
2137.465672  	-0.042537 
2138.897330  	-0.040633 
2140.328988  	-0.043223 
2141.760646  	-0.043932 
2143.192304  	-0.041721 
2144.623962  	-0.042027 
2146.055621  	-0.041629 
2147.487279  	-0.043683 
2148.918937  	-0.044060 
2150.350595  	-0.039817 
2151.782253  	-0.041057 
2153.213912  	-0.041819 
2154.645570  	-0.040717 
2156.077228  	-0.043521 
2157.508886  	-0.041231 
2158.940544  	-0.038643 
2160.372202  	-0.038101 
2161.803861  	-0.036680 
2163.235519  	-0.043146 
2164.667177  	-0.045946 
2166.098835  	-0.041960 
2167.530493  	-0.041939 
2168.962152  	-0.041457 
2170.393810  	-0.042227 
2171.825468  	-0.043290 
2173.257126  	-0.041420 
2174.688784  	-0.043922 
2176.120443  	-0.044067 
2177.552101  	-0.041202 
2178.983759  	-0.043535 
2180.415417  	-0.042649 
2181.847075  	-0.041758 
2183.278733  	-0.043696 
2184.710392  	-0.040629 
2186.142050  	-0.040963 
2187.573708  	-0.042921 
2189.005366  	-0.040592 
2190.437024  	-0.041704 
2191.868683  	-0.042428 
2193.300341  	-0.041882 
2194.731999  	-0.044086 
2196.163657  	-0.043627 
2197.595315  	-0.043285 
2199.026974  	-0.043843 
2200.458632  	-0.042743 
2201.890290  	-0.044494 
2203.321948  	-0.045361 
2204.753606  	-0.044047 
2206.185264  	-0.043977 
2207.616923  	-0.042679 
2209.048581  	-0.043315 
2210.480239  	-0.044953 
2211.911897  	-0.043953 
2213.343555  	-0.044694 
2214.775214  	-0.044862 
2216.206872  	-0.044231 
2217.638530  	-0.045659 
2219.070188  	-0.044771 
2220.501846  	-0.044310 
2221.933504  	-0.045262 
2223.365163  	-0.044194 
2224.796821  	-0.044804 
2226.228479  	-0.044554 
2227.660137  	-0.042904 
2229.091795  	-0.044804 
2230.523454  	-0.045769 
2231.955112  	-0.045377 
2233.386770  	-0.045751 
2234.818428  	-0.044694 
2236.250086  	-0.045431 
2237.681745  	-0.046708 
2239.113403  	-0.045945 
2240.545061  	-0.046163 
2241.976719  	-0.045798 
2243.408377  	-0.045360 
2244.840035  	-0.045789 
2246.271694  	-0.044976 
2247.703352  	-0.045437 
2249.135010  	-0.045566 
2250.566668  	-0.044368 
2251.998326  	-0.045499 
2253.429985  	-0.045406 
2254.861643  	-0.044348 
2256.293301  	-0.045373 
2257.724959  	-0.044898 
2259.156617  	-0.044806 
2260.588276  	-0.045785 
2262.019934  	-0.044714 
2263.451592  	-0.044451 
2264.883250  	-0.045041 
2266.314908  	-0.045452 
2267.746566  	-0.046541 
2269.178225  	-0.046324 
2270.609883  	-0.046016 
2272.041541  	-0.045654 
2273.473199  	-0.044430 
2274.904857  	-0.045439 
2276.336516  	-0.046206 
2277.768174  	-0.045478 
2279.199832  	-0.046335 
2280.631490  	-0.046212 
2282.063148  	-0.045237 
2283.494806  	-0.045726 
2284.926465  	-0.046013 
2286.358123  	-0.046233 
2287.789781  	-0.045879 
2289.221439  	-0.045227 
2290.653097  	-0.045973 
2292.084756  	-0.045823 
2293.516414  	-0.045291 
2294.948072  	-0.045827 
2296.379730  	-0.044975 
2297.811388  	-0.044312 
2299.243047  	-0.045054 
2300.674705  	-0.044900 
2302.106363  	-0.044479 
2303.538021  	-0.044180 
2304.969679  	-0.044010 
2306.401337  	-0.044185 
2307.832996  	-0.043374 
2309.264654  	-0.042918 
2310.696312  	-0.043260 
2312.127970  	-0.042704 
2313.559628  	-0.042556 
2314.991287  	-0.042685 
2316.422945  	-0.042196 
2317.854603  	-0.041817 
2319.286261  	-0.040695 
2320.717919  	-0.039604 
2322.149577  	-0.039361 
2323.581236  	-0.039082 
2325.012894  	-0.039385 
2326.444552  	-0.038948 
2327.876210  	-0.037445 
2329.307868  	-0.037162 
2330.739527  	-0.037174 
2332.171185  	-0.036932 
2333.602843  	-0.037291 
2335.034501  	-0.037157 
2336.466159  	-0.036821 
2337.897818  	-0.036274 
2339.329476  	-0.035707 
2340.761134  	-0.035997 
2342.192792  	-0.035483 
2343.624450  	-0.035049 
2345.056108  	-0.035914 
2346.487767  	-0.037088 
2347.919425  	-0.039600 
2349.351083  	-0.041006 
2350.782741  	-0.039071 
2352.214399  	-0.036889 
2353.646058  	-0.035999 
2355.077716  	-0.034658 
2356.509374  	-0.033996 
2357.941032  	-0.033070 
2359.372690  	-0.032169 
2360.804349  	-0.032726 
2362.236007  	-0.032617 
2363.667665  	-0.032984 
2365.099323  	-0.034169 
2366.530981  	-0.034498 
2367.962639  	-0.035358 
2369.394298  	-0.036472 
2370.825956  	-0.037509 
2372.257614  	-0.038665 
2373.689272  	-0.039340 
2375.120930  	-0.040583 
2376.552589  	-0.041619 
2377.984247  	-0.042143 
2379.415905  	-0.043633 
2380.847563  	-0.044753 
2382.279221  	-0.045450 
2383.710879  	-0.046663 
2385.142538  	-0.047141 
2386.574196  	-0.047526 
2388.005854  	-0.048052 
2389.437512  	-0.047662 
2390.869170  	-0.047694 
2392.300829  	-0.048096 
2393.732487  	-0.047993 
2395.164145  	-0.048206 
2396.595803  	-0.048425 
2398.027461  	-0.048532 
2399.459120  	-0.048601 
2400.890778  	-0.048350 
2402.322436  	-0.048386 
2403.754094  	-0.048150 
2405.185752  	-0.047852 
2406.617410  	-0.048280 
2408.049069  	-0.048083 
2409.480727  	-0.047745 
2410.912385  	-0.047926 
2412.344043  	-0.047790 
2413.775701  	-0.048199 
2415.207360  	-0.048441 
2416.639018  	-0.048073 
2418.070676  	-0.048698 
2419.502334  	-0.048990 
2420.933992  	-0.048577 
2422.365651  	-0.048657 
2423.797309  	-0.048366 
2425.228967  	-0.048253 
2426.660625  	-0.048420 
2428.092283  	-0.048229 
2429.523941  	-0.048530 
2430.955600  	-0.048271 
2432.387258  	-0.047773 
2433.818916  	-0.048584 
2435.250574  	-0.048846 
2436.682232  	-0.048410 
2438.113891  	-0.048427 
2439.545549  	-0.048354 
2440.977207  	-0.048558 
2442.408865  	-0.048595 
2443.840523  	-0.048384 
2445.272181  	-0.048611 
2446.703840  	-0.048218 
2448.135498  	-0.047983 
2449.567156  	-0.048548 
2450.998814  	-0.048545 
2452.430472  	-0.048628 
2453.862131  	-0.048798 
2455.293789  	-0.048588 
2456.725447  	-0.048791 
2458.157105  	-0.048576 
2459.588763  	-0.048154 
2461.020422  	-0.048277 
2462.452080  	-0.048105 
2463.883738  	-0.048186 
2465.315396  	-0.048340 
2466.747054  	-0.048079 
2468.178712  	-0.048369 
2469.610371  	-0.048279 
2471.042029  	-0.047748 
2472.473687  	-0.047943 
2473.905345  	-0.047964 
2475.337003  	-0.047800 
2476.768662  	-0.047779 
2478.200320  	-0.047593 
2479.631978  	-0.047645 
2481.063636  	-0.047614 
2482.495294  	-0.047759 
2483.926953  	-0.047913 
2485.358611  	-0.047285 
2486.790269  	-0.047486 
2488.221927  	-0.048158 
2489.653585  	-0.047903 
2491.085243  	-0.048137 
2492.516902  	-0.048247 
2493.948560  	-0.047710 
2495.380218  	-0.047756 
2496.811876  	-0.047662 
2498.243534  	-0.047831 
2499.675193  	-0.048289 
2501.106851  	-0.047900 
2502.538509  	-0.048096 
2503.970167  	-0.048515 
2505.401825  	-0.048040 
2506.833483  	-0.047958 
2508.265142  	-0.048045 
2509.696800  	-0.048251 
2511.128458  	-0.048596 
2512.560116  	-0.048262 
2513.991774  	-0.048455 
2515.423433  	-0.048743 
2516.855091  	-0.048249 
2518.286749  	-0.048423 
2519.718407  	-0.048599 
2521.150065  	-0.048560 
2522.581724  	-0.049011 
2524.013382  	-0.048832 
2525.445040  	-0.048701 
2526.876698  	-0.049020 
2528.308356  	-0.049097 
2529.740014  	-0.049390 
2531.171673  	-0.049006 
2532.603331  	-0.048493 
2534.034989  	-0.048876 
2535.466647  	-0.048640 
2536.898305  	-0.048691 
2538.329964  	-0.049231 
2539.761622  	-0.048663 
2541.193280  	-0.048531 
2542.624938  	-0.048633 
2544.056596  	-0.048143 
2545.488254  	-0.048520 
2546.919913  	-0.048784 
2548.351571  	-0.048581 
2549.783229  	-0.048643 
2551.214887  	-0.048395 
2552.646545  	-0.048741 
2554.078204  	-0.049063 
2555.509862  	-0.048391 
2556.941520  	-0.048258 
2558.373178  	-0.048108 
2559.804836  	-0.047718 
2561.236495  	-0.047976 
2562.668153  	-0.047834 
2564.099811  	-0.047716 
2565.531469  	-0.047830 
2566.963127  	-0.047488 
2568.394785  	-0.047737 
2569.826444  	-0.048061 
2571.258102  	-0.047921 
2572.689760  	-0.047951 
2574.121418  	-0.047614 
2575.553076  	-0.047647 
2576.984735  	-0.048022 
2578.416393  	-0.047754 
2579.848051  	-0.048011 
2581.279709  	-0.048244 
2582.711367  	-0.047871 
2584.143026  	-0.048172 
2585.574684  	-0.048150 
2587.006342  	-0.047612 
2588.438000  	-0.047594 
2589.869658  	-0.047544 
2591.301316  	-0.047553 
2592.732975  	-0.047338 
2594.164633  	-0.046889 
2595.596291  	-0.047302 
2597.027949  	-0.047604 
2598.459607  	-0.047391 
2599.891266  	-0.047578 
2601.322924  	-0.047774 
2602.754582  	-0.047984 
2604.186240  	-0.047918 
2605.617898  	-0.047395 
2607.049556  	-0.047417 
2608.481215  	-0.047551 
2609.912873  	-0.047525 
2611.344531  	-0.047786 
2612.776189  	-0.047863 
2614.207847  	-0.048050 
2615.639506  	-0.048178 
2617.071164  	-0.047769 
2618.502822  	-0.047598 
2619.934480  	-0.047449 
2621.366138  	-0.047340 
2622.797797  	-0.047744 
2624.229455  	-0.047817 
2625.661113  	-0.047771 
2627.092771  	-0.047947 
2628.524429  	-0.047818 
2629.956087  	-0.047726 
2631.387746  	-0.047512 
2632.819404  	-0.047275 
2634.251062  	-0.047582 
2635.682720  	-0.047688 
2637.114378  	-0.047572 
2638.546037  	-0.047533 
2639.977695  	-0.047286 
2641.409353  	-0.047344 
2642.841011  	-0.047390 
2644.272669  	-0.047123 
2645.704328  	-0.047237 
2647.135986  	-0.047334 
2648.567644  	-0.047296 
2649.999302  	-0.047384 
2651.430960  	-0.047198 
2652.862618  	-0.047056 
2654.294277  	-0.046984 
2655.725935  	-0.046861 
2657.157593  	-0.046978 
2658.589251  	-0.046786 
2660.020909  	-0.046476 
2661.452568  	-0.046389 
2662.884226  	-0.045952 
2664.315884  	-0.045776 
2665.747542  	-0.045942 
2667.179200  	-0.045696 
2668.610858  	-0.045573 
2670.042517  	-0.045512 
2671.474175  	-0.045291 
2672.905833  	-0.045276 
2674.337491  	-0.045065 
2675.769149  	-0.044965 
2677.200808  	-0.045120 
2678.632466  	-0.044897 
2680.064124  	-0.044801 
2681.495782  	-0.044648 
2682.927440  	-0.044094 
2684.359099  	-0.044029 
2685.790757  	-0.044071 
2687.222415  	-0.043762 
2688.654073  	-0.043556 
2690.085731  	-0.043222 
2691.517389  	-0.042835 
2692.949048  	-0.042559 
2694.380706  	-0.042348 
2695.812364  	-0.042348 
2697.244022  	-0.042080 
2698.675680  	-0.041699 
2700.107339  	-0.041631 
2701.538997  	-0.041403 
2702.970655  	-0.041211 
2704.402313  	-0.041062 
2705.833971  	-0.040695 
2707.265630  	-0.040640 
2708.697288  	-0.040532 
2710.128946  	-0.040192 
2711.560604  	-0.040101 
2712.992262  	-0.039825 
2714.423920  	-0.039574 
2715.855579  	-0.039562 
2717.287237  	-0.039285 
2718.718895  	-0.039111 
2720.150553  	-0.038910 
2721.582211  	-0.038469 
2723.013870  	-0.038279 
2724.445528  	-0.037910 
2725.877186  	-0.037408 
2727.308844  	-0.037193 
2728.740502  	-0.036863 
2730.172160  	-0.036640 
2731.603819  	-0.036469 
2733.035477  	-0.036056 
2734.467135  	-0.035855 
2735.898793  	-0.035652 
2737.330451  	-0.035447 
2738.762110  	-0.035433 
2740.193768  	-0.035071 
2741.625426  	-0.034738 
2743.057084  	-0.034732 
2744.488742  	-0.034683 
2745.920401  	-0.034728 
2747.352059  	-0.034581 
2748.783717  	-0.034402 
2750.215375  	-0.034615 
2751.647033  	-0.034596 
2753.078691  	-0.034478 
2754.510350  	-0.034459 
2755.942008  	-0.034165 
2757.373666  	-0.034046 
2758.805324  	-0.033930 
2760.236982  	-0.033646 
2761.668641  	-0.033726 
2763.100299  	-0.033649 
2764.531957  	-0.033363 
2765.963615  	-0.033351 
2767.395273  	-0.033199 
2768.826931  	-0.032862 
2770.258590  	-0.032352 
2771.690248  	-0.031761 
2773.121906  	-0.031476 
2774.553564  	-0.031065 
2775.985222  	-0.030524 
2777.416881  	-0.030018 
2778.848539  	-0.029175 
2780.280197  	-0.028425 
2781.711855  	-0.027602 
2783.143513  	-0.026294 
2784.575172  	-0.025169 
2786.006830  	-0.023932 
2787.438488  	-0.022347 
2788.870146  	-0.021024 
2790.301804  	-0.019660 
2791.733462  	-0.018120 
2793.165121  	-0.016705 
2794.596779  	-0.015701 
2796.028437  	-0.015432 
2797.460095  	-0.015275 
2798.891753  	-0.015256 
2800.323412  	-0.016001 
2801.755070  	-0.016841 
2803.186728  	-0.017707 
2804.618386  	-0.018827 
2806.050044  	-0.019713 
2807.481703  	-0.020708 
2808.913361  	-0.021706 
2810.345019  	-0.022271 
2811.776677  	-0.022746 
2813.208335  	-0.022937 
2814.639993  	-0.022947 
2816.071652  	-0.022825 
2817.503310  	-0.021925 
2818.934968  	-0.020726 
2820.366626  	-0.019456 
2821.798284  	-0.017785 
2823.229943  	-0.016053 
2824.661601  	-0.013936 
2826.093259  	-0.011373 
2827.524917  	-0.008581 
2828.956575  	-0.004994 
2830.388233  	-0.001127 
2831.819892  	0.002614 
2833.251550  	0.006880 
2834.683208  	0.011608 
2836.114866  	0.016950 
2837.546524  	0.022816 
2838.978183  	0.028562 
2840.409841  	0.034703 
2841.841499  	0.041349 
2843.273157  	0.048273 
2844.704815  	0.056378 
2846.136474  	0.065799 
2847.568132  	0.075446 
2848.999790  	0.083258 
2850.431448  	0.086808 
2851.863106  	0.086492 
2853.294764  	0.084850 
2854.726423  	0.083169 
2856.158081  	0.081861 
2857.589739  	0.080750 
2859.021397  	0.079343 
2860.453055  	0.077658 
2861.884714  	0.075603 
2863.316372  	0.073320 
2864.748030  	0.070988 
2866.179688  	0.068321 
2867.611346  	0.065467 
2869.043005  	0.062446 
2870.474663  	0.059098 
2871.906321  	0.055473 
2873.337979  	0.051160 
2874.769637  	0.046279 
2876.201295  	0.041233 
2877.632954  	0.036000 
2879.064612  	0.031205 
2880.496270  	0.027047 
2881.927928  	0.023414 
2883.359586  	0.020785 
2884.791245  	0.018765 
2886.222903  	0.017132 
2887.654561  	0.016294 
2889.086219  	0.016079 
2890.517877  	0.016620 
2891.949535  	0.017548 
2893.381194  	0.018222 
2894.812852  	0.019275 
2896.244510  	0.020556 
2897.676168  	0.021393 
2899.107826  	0.022376 
2900.539485  	0.023732 
2901.971143  	0.025218 
2903.402801  	0.026904 
2904.834459  	0.028758 
2906.266117  	0.030893 
2907.697776  	0.033317 
2909.129434  	0.036164 
2910.561092  	0.039844 
2911.992750  	0.044278 
2913.424408  	0.049657 
2914.856066  	0.055771 
2916.287725  	0.060518 
2917.719383  	0.062311 
2919.151041  	0.061662 
2920.582699  	0.059387 
2922.014357  	0.056319 
2923.446016  	0.053412 
2924.877674  	0.051270 
2926.309332  	0.050144 
2927.740990  	0.049789 
2929.172648  	0.049986 
2930.604306  	0.050850 
2932.035965  	0.052104 
2933.467623  	0.053204 
2934.899281  	0.054259 
2936.330939  	0.055528 
2937.762597  	0.056500 
2939.194256  	0.056885 
2940.625914  	0.056969 
2942.057572  	0.056511 
2943.489230  	0.055341 
2944.920888  	0.053779 
2946.352547  	0.051778 
2947.784205  	0.049490 
2949.215863  	0.047224 
2950.647521  	0.044778 
2952.079179  	0.042255 
2953.510837  	0.039729 
2954.942496  	0.036814 
2956.374154  	0.033547 
2957.805812  	0.030201 
2959.237470  	0.026795 
2960.669128  	0.023006 
2962.100787  	0.018817 
2963.532445  	0.014806 
2964.964103  	0.010690 
2966.395761  	0.006179 
2967.827419  	0.001994 
2969.259078  	-0.001935 
2970.690736  	-0.005783 
2972.122394  	-0.009323 
2973.554052  	-0.012967 
2974.985710  	-0.016450 
2976.417368  	-0.019387 
2977.849027  	-0.022154 
2979.280685  	-0.024601 
2980.712343  	-0.026710 
2982.144001  	-0.028624 
2983.575659  	-0.030261 
2985.007318  	-0.031811 
2986.438976  	-0.033054 
2987.870634  	-0.034091 
2989.302292  	-0.035247 
2990.733950  	-0.036065 
2992.165608  	-0.036809 
2993.597267  	-0.037626 
2995.028925  	-0.037953 
2996.460583  	-0.038192 
2997.892241  	-0.038365 
2999.323899  	-0.038323 
3000.755558  	-0.038556 
3002.187216  	-0.038605 
3003.618874  	-0.038476 
3005.050532  	-0.038665 
3006.482190  	-0.038694 
3007.913849  	-0.038771 
3009.345507  	-0.038991 
3010.777165  	-0.038798 
3012.208823  	-0.038694 
3013.640481  	-0.038985 
3015.072139  	-0.039241 
3016.503798  	-0.039202 
3017.935456  	-0.039019 
3019.367114  	-0.039184 
3020.798772  	-0.039118 
3022.230430  	-0.038449 
3023.662089  	-0.038043 
3025.093747  	-0.037539 
3026.525405  	-0.036637 
3027.957063  	-0.035864 
3029.388721  	-0.034814 
3030.820380  	-0.033805 
3032.252038  	-0.033270 
3033.683696  	-0.032671 
3035.115354  	-0.032433 
3036.547012  	-0.032553 
3037.978670  	-0.032327 
3039.410329  	-0.032018 
3040.841987  	-0.031717 
3042.273645  	-0.031538 
3043.705303  	-0.031680 
3045.136961  	-0.031756 
3046.568620  	-0.031837 
3048.000278  	-0.032050 
3049.431936  	-0.032470 
3050.863594  	-0.033145 
3052.295252  	-0.033309 
3053.726910  	-0.033101 
3055.158569  	-0.033198 
3056.590227  	-0.033317 
3058.021885  	-0.033542 
3059.453543  	-0.033784 
3060.885201  	-0.033856 
3062.316860  	-0.034216 
3063.748518  	-0.034537 
3065.180176  	-0.034828 
3066.611834  	-0.035536 
3068.043492  	-0.036136 
3069.475151  	-0.036755 
3070.906809  	-0.037451 
3072.338467  	-0.037738 
3073.770125  	-0.038152 
3075.201783  	-0.038718 
3076.633441  	-0.039152 
3078.065100  	-0.039820 
3079.496758  	-0.040393 
3080.928416  	-0.040637 
3082.360074  	-0.040706 
3083.791732  	-0.040902 
3085.223391  	-0.041562 
3086.655049  	-0.041900 
3088.086707  	-0.041967 
3089.518365  	-0.042368 
3090.950023  	-0.042215 
3092.381682  	-0.042064 
3093.813340  	-0.042566 
3095.244998  	-0.042341 
3096.676656  	-0.041762 
3098.108314  	-0.041598 
3099.539972  	-0.041224 
3100.971631  	-0.040892 
3102.403289  	-0.040609 
3103.834947  	-0.040343 
3105.266605  	-0.040372 
3106.698263  	-0.039958 
3108.129922  	-0.039157 
3109.561580  	-0.038497 
3110.993238  	-0.037902 
3112.424896  	-0.037617 
3113.856554  	-0.037221 
3115.288212  	-0.036575 
3116.719871  	-0.036224 
3118.151529  	-0.035826 
3119.583187  	-0.035615 
3121.014845  	-0.035710 
3122.446503  	-0.035500 
3123.878162  	-0.035470 
3125.309820  	-0.035611 
3126.741478  	-0.035796 
3128.173136  	-0.036526 
3129.604794  	-0.037016 
3131.036453  	-0.037381 
3132.468111  	-0.038550 
3133.899769  	-0.039760 
3135.331427  	-0.040535 
3136.763085  	-0.040886 
3138.194743  	-0.041026 
3139.626402  	-0.041752 
3141.058060  	-0.042529 
3142.489718  	-0.042930 
3143.921376  	-0.043418 
3145.353034  	-0.043735 
3146.784693  	-0.043981 
3148.216351  	-0.044137 
3149.648009  	-0.044096 
3151.079667  	-0.044409 
3152.511325  	-0.044508 
3153.942983  	-0.044232 
3155.374642  	-0.044237 
3156.806300  	-0.044070 
3158.237958  	-0.043946 
3159.669616  	-0.044011 
3161.101274  	-0.043763 
3162.532933  	-0.043822 
3163.964591  	-0.043843 
3165.396249  	-0.043314 
3166.827907  	-0.042998 
3168.259565  	-0.042588 
3169.691224  	-0.042097 
3171.122882  	-0.041863 
3172.554540  	-0.041256 
3173.986198  	-0.040748 
3175.417856  	-0.040428 
3176.849514  	-0.039647 
3178.281173  	-0.038914 
3179.712831  	-0.038139 
3181.144489  	-0.037236 
3182.576147  	-0.036593 
3184.007805  	-0.035858 
3185.439464  	-0.035310 
3186.871122  	-0.034733 
3188.302780  	-0.033726 
3189.734438  	-0.033433 
3191.166096  	-0.033499 
3192.597755  	-0.033269 
3194.029413  	-0.033783 
3195.461071  	-0.034457 
3196.892729  	-0.034619 
3198.324387  	-0.035003 
3199.756045  	-0.035336 
3201.187704  	-0.035489 
3202.619362  	-0.035866 
3204.051020  	-0.036277 
3205.482678  	-0.036462 
3206.914336  	-0.036358 
3208.345995  	-0.036367 
3209.777653  	-0.036373 
3211.209311  	-0.035945 
3212.640969  	-0.035736 
3214.072627  	-0.035733 
3215.504285  	-0.035460 
3216.935944  	-0.035116 
3218.367602  	-0.034364 
3219.799260  	-0.033515 
3221.230918  	-0.033172 
3222.662576  	-0.032776 
3224.094235  	-0.032339 
3225.525893  	-0.031884 
3226.957551  	-0.031146 
3228.389209  	-0.030541 
3229.820867  	-0.029881 
3231.252526  	-0.029167 
3232.684184  	-0.028630 
3234.115842  	-0.027810 
3235.547500  	-0.027227 
3236.979158  	-0.026829 
3238.410816  	-0.025677 
3239.842475  	-0.024688 
3241.274133  	-0.024287 
3242.705791  	-0.023611 
3244.137449  	-0.022730 
3245.569107  	-0.021690 
3247.000766  	-0.020560 
3248.432424  	-0.019696 
3249.864082  	-0.019027 
3251.295740  	-0.018461 
3252.727398  	-0.017686 
3254.159057  	-0.016764 
3255.590715  	-0.015926 
3257.022373  	-0.014713 
3258.454031  	-0.013648 
3259.885689  	-0.013119 
3261.317347  	-0.012109 
3262.749006  	-0.010649 
3264.180664  	-0.009294 
3265.612322  	-0.008208 
3267.043980  	-0.007573 
3268.475638  	-0.006672 
3269.907297  	-0.005302 
3271.338955  	-0.004032 
3272.770613  	-0.002762 
3274.202271  	-0.001674 
3275.633929  	-0.000521 
3277.065587  	0.001233 
3278.497246  	0.002850 
3279.928904  	0.004195 
3281.360562  	0.005751 
3282.792220  	0.007443 
3284.223878  	0.009376 
3285.655537  	0.011272 
3287.087195  	0.013002 
3288.518853  	0.014789 
3289.950511  	0.016238 
3291.382169  	0.017747 
3292.813828  	0.019721 
3294.245486  	0.021533 
3295.677144  	0.023417 
3297.108802  	0.025349 
3298.540460  	0.026641 
3299.972118  	0.027715 
3301.403777  	0.028915 
3302.835435  	0.029945 
3304.267093  	0.030530 
3305.698751  	0.030605 
3307.130409  	0.030566 
3308.562068  	0.030466 
3309.993726  	0.030464 
3311.425384  	0.030835 
3312.857042  	0.031045 
3314.288700  	0.031296 
3315.720359  	0.031887 
3317.152017  	0.032238 
3318.583675  	0.032560 
3320.015333  	0.032791 
3321.446991  	0.032692 
3322.878649  	0.032834 
3324.310308  	0.032634 
3325.741966  	0.031866 
3327.173624  	0.031468 
3328.605282  	0.030978 
3330.036940  	0.029978 
3331.468599  	0.028932 
3332.900257  	0.027908 
3334.331915  	0.026788 
3335.763573  	0.025164 
3337.195231  	0.023254 
3338.626889  	0.021528 
3340.058548  	0.019430 
3341.490206  	0.017024 
3342.921864  	0.014680 
3344.353522  	0.012306 
3345.785180  	0.009968 
3347.216839  	0.007197 
3348.648497  	0.004506 
3350.080155  	0.002677 
3351.511813  	0.000332 
3352.943471  	-0.002730 
3354.375130  	-0.005406 
3355.806788  	-0.007879 
3357.238446  	-0.009881 
3358.670104  	-0.011607 
3360.101762  	-0.013947 
3361.533420  	-0.016247 
3362.965079  	-0.018083 
3364.396737  	-0.019900 
3365.828395  	-0.021764 
3367.260053  	-0.023507 
3368.691711  	-0.024692 
3370.123370  	-0.025586 
3371.555028  	-0.026710 
3372.986686  	-0.027895 
3374.418344  	-0.029158 
3375.850002  	-0.030093 
3377.281660  	-0.030638 
3378.713319  	-0.031613 
3380.144977  	-0.032564 
3381.576635  	-0.033039 
3383.008293  	-0.033436 
3384.439951  	-0.033761 
3385.871610  	-0.034429 
3387.303268  	-0.035147 
3388.734926  	-0.035303 
3390.166584  	-0.035630 
3391.598242  	-0.036104 
3393.029901  	-0.036411 
3394.461559  	-0.036751 
3395.893217  	-0.036795 
3397.324875  	-0.037190 
3398.756533  	-0.038076 
3400.188191  	-0.038412 
3401.619850  	-0.038769 
3403.051508  	-0.039255 
3404.483166  	-0.039310 
3405.914824  	-0.039567 
3407.346482  	-0.039897 
3408.778141  	-0.040143 
3410.209799  	-0.040587 
3411.641457  	-0.040840 
3413.073115  	-0.041213 
3414.504773  	-0.041677 
3415.936432  	-0.041799 
3417.368090  	-0.042058 
3418.799748  	-0.042211 
3420.231406  	-0.042265 
3421.663064  	-0.042674 
3423.094722  	-0.042746 
3424.526381  	-0.042728 
3425.958039  	-0.043103 
3427.389697  	-0.043338 
3428.821355  	-0.043441 
3430.253013  	-0.043435 
3431.684672  	-0.043573 
3433.116330  	-0.043976 
3434.547988  	-0.043933 
3435.979646  	-0.043923 
3437.411304  	-0.044114 
3438.842962  	-0.043902 
3440.274621  	-0.044098 
3441.706279  	-0.044552 
3443.137937  	-0.044588 
3444.569595  	-0.044755 
3446.001253  	-0.044866 
3447.432912  	-0.045129 
3448.864570  	-0.045738 
3450.296228  	-0.045845 
3451.727886  	-0.045930 
3453.159544  	-0.046005 
3454.591203  	-0.045731 
3456.022861  	-0.046027 
3457.454519  	-0.046306 
3458.886177  	-0.046039 
3460.317835  	-0.046137 
3461.749493  	-0.046230 
3463.181152  	-0.046133 
3464.612810  	-0.046209 
3466.044468  	-0.046273 
3467.476126  	-0.046571 
3468.907784  	-0.046729 
3470.339443  	-0.046467 
3471.771101  	-0.046285 
3473.202759  	-0.046105 
3474.634417  	-0.046203 
3476.066075  	-0.046524 
3477.497734  	-0.046499 
3478.929392  	-0.046527 
3480.361050  	-0.046306 
3481.792708  	-0.045870 
3483.224366  	-0.046207 
3484.656024  	-0.046518 
3486.087683  	-0.046490 
3487.519341  	-0.046664 
3488.950999  	-0.046534 
3490.382657  	-0.046421 
3491.814315  	-0.046561 
3493.245974  	-0.046525 
3494.677632  	-0.046659 
3496.109290  	-0.046791 
3497.540948  	-0.046749 
3498.972606  	-0.046645 
3500.404264  	-0.046261 
3501.835923  	-0.046278 
3503.267581  	-0.046665 
3504.699239  	-0.046554 
3506.130897  	-0.046537 
3507.562555  	-0.046700 
3508.994214  	-0.046780 
3510.425872  	-0.046950 
3511.857530  	-0.046891 
3513.289188  	-0.046854 
3514.720846  	-0.046890 
3516.152505  	-0.046803 
3517.584163  	-0.047130 
3519.015821  	-0.047390 
3520.447479  	-0.047160 
3521.879137  	-0.047077 
3523.310795  	-0.047180 
3524.742454  	-0.047369 
3526.174112  	-0.047132 
3527.605770  	-0.046648 
3529.037428  	-0.047070 
3530.469086  	-0.047532 
3531.900745  	-0.047728 
3533.332403  	-0.048148 
3534.764061  	-0.047683 
3536.195719  	-0.047356 
3537.627377  	-0.048141 
3539.059035  	-0.048226 
3540.490694  	-0.048264 
3541.922352  	-0.048645 
3543.354010  	-0.048186 
3544.785668  	-0.048053 
3546.217326  	-0.048613 
3547.648985  	-0.049039 
3549.080643  	-0.049523 
3550.512301  	-0.049305 
3551.943959  	-0.048859 
3553.375617  	-0.049211 
3554.807276  	-0.049384 
3556.238934  	-0.049317 
3557.670592  	-0.049442 
3559.102250  	-0.049630 
3560.533908  	-0.049946 
3561.965566  	-0.050088 
3563.397225  	-0.050243 
3564.828883  	-0.050078 
3566.260541  	-0.049125 
3567.692199  	-0.049295 
3569.123857  	-0.050196 
3570.555516  	-0.049973 
3571.987174  	-0.050181 
3573.418832  	-0.050578 
3574.850490  	-0.050299 
3576.282148  	-0.050329 
3577.713807  	-0.050918 
3579.145465  	-0.051485 
3580.577123  	-0.051523 
3582.008781  	-0.051198 
3583.440439  	-0.051118 
3584.872097  	-0.050574 
3586.303756  	-0.049949 
3587.735414  	-0.051030 
3589.167072  	-0.052322 
3590.598730  	-0.052080 
3592.030388  	-0.051476 
3593.462047  	-0.050837 
3594.893705  	-0.050804 
3596.325363  	-0.051424 
3597.757021  	-0.051610 
3599.188679  	-0.051209 
3600.620337  	-0.051142 
3602.051996  	-0.051985 
3603.483654  	-0.052437 
3604.915312  	-0.052287 
3606.346970  	-0.052393 
3607.778628  	-0.052287 
3609.210287  	-0.052805 
3610.641945  	-0.053809 
3612.073603  	-0.052946 
3613.505261  	-0.052160 
3614.936919  	-0.053182 
3616.368578  	-0.053115 
3617.800236  	-0.052405 
3619.231894  	-0.052681 
3620.663552  	-0.053288 
3622.095210  	-0.053447 
3623.526868  	-0.053241 
3624.958527  	-0.053322 
3626.390185  	-0.052961 
3627.821843  	-0.051016 
3629.253501  	-0.050731 
3630.685159  	-0.053650 
3632.116818  	-0.053351 
3633.548476  	-0.052923 
3634.980134  	-0.053731 
3636.411792  	-0.053987 
3637.843450  	-0.054051 
3639.275109  	-0.054221 
3640.706767  	-0.054066 
3642.138425  	-0.054017 
3643.570083  	-0.054219 
3645.001741  	-0.054314 
3646.433399  	-0.053949 
3647.865058  	-0.053226 
3649.296716  	-0.052279 
3650.728374  	-0.052113 
3652.160032  	-0.054747 
3653.591690  	-0.055789 
3655.023349  	-0.054555 
3656.455007  	-0.054326 
3657.886665  	-0.055438 
3659.318323  	-0.054968 
3660.749981  	-0.054601 
3662.181639  	-0.055009 
3663.613298  	-0.055461 
3665.044956  	-0.055751 
3666.476614  	-0.055444 
3667.908272  	-0.054869 
3669.339930  	-0.054102 
3670.771589  	-0.054003 
3672.203247  	-0.055121 
3673.634905  	-0.054291 
3675.066563  	-0.053051 
3676.498221  	-0.056315 
3677.929880  	-0.057152 
3679.361538  	-0.056017 
3680.793196  	-0.056105 
3682.224854  	-0.056082 
3683.656512  	-0.056178 
3685.088170  	-0.056575 
3686.519829  	-0.055801 
3687.951487  	-0.055296 
3689.383145  	-0.056314 
3690.814803  	-0.056536 
3692.246461  	-0.056617 
3693.678120  	-0.056947 
3695.109778  	-0.056623 
3696.541436  	-0.056314 
3697.973094  	-0.056447 
3699.404752  	-0.056215 
3700.836411  	-0.055782 
3702.268069  	-0.056358 
3703.699727  	-0.057001 
3705.131385  	-0.056675 
3706.563043  	-0.056411 
3707.994701  	-0.056212 
3709.426360  	-0.055851 
3710.858018  	-0.055618 
3712.289676  	-0.055608 
3713.721334  	-0.056987 
3715.152992  	-0.057954 
3716.584651  	-0.057145 
3718.016309  	-0.056733 
3719.447967  	-0.057180 
3720.879625  	-0.056658 
3722.311283  	-0.056214 
3723.742941  	-0.056336 
3725.174600  	-0.055856 
3726.606258  	-0.055743 
3728.037916  	-0.056464 
3729.469574  	-0.056556 
3730.901232  	-0.055958 
3732.332891  	-0.055669 
3733.764549  	-0.055391 
3735.196207  	-0.054222 
3736.627865  	-0.055742 
3738.059523  	-0.058059 
3739.491182  	-0.057552 
3740.922840  	-0.057615 
3742.354498  	-0.057262 
3743.786156  	-0.054743 
3745.217814  	-0.056007 
3746.649472  	-0.058189 
3748.081131  	-0.056045 
3749.512789  	-0.055559 
3750.944447  	-0.056773 
3752.376105  	-0.056250 
3753.807763  	-0.057378 
3755.239422  	-0.057704 
3756.671080  	-0.057197 
3758.102738  	-0.057471 
3759.534396  	-0.057119 
3760.966054  	-0.057326 
3762.397712  	-0.058043 
3763.829371  	-0.057170 
3765.261029  	-0.056767 
3766.692687  	-0.057599 
3768.124345  	-0.057241 
3769.556003  	-0.056966 
3770.987662  	-0.057885 
3772.419320  	-0.058309 
3773.850978  	-0.057960 
3775.282636  	-0.057655 
3776.714294  	-0.057672 
3778.145953  	-0.057141 
3779.577611  	-0.056599 
3781.009269  	-0.057327 
3782.440927  	-0.057242 
3783.872585  	-0.056410 
3785.304243  	-0.056585 
3786.735902  	-0.057132 
3788.167560  	-0.057333 
3789.599218  	-0.057413 
3791.030876  	-0.057287 
3792.462534  	-0.057537 
3793.894193  	-0.057723 
3795.325851  	-0.057146 
3796.757509  	-0.056691 
3798.189167  	-0.056745 
3799.620825  	-0.056108 
3801.052484  	-0.055048 
3802.484142  	-0.056293 
3803.915800  	-0.057677 
3805.347458  	-0.056365 
3806.779116  	-0.055414 
3808.210774  	-0.057591 
3809.642433  	-0.058158 
3811.074091  	-0.057339 
3812.505749  	-0.057381 
3813.937407  	-0.057069 
3815.369065  	-0.056229 
3816.800724  	-0.057034 
3818.232382  	-0.057201 
3819.664040  	-0.055456 
3821.095698  	-0.054807 
3822.527356  	-0.057347 
3823.959014  	-0.057578 
3825.390673  	-0.056920 
3826.822331  	-0.057492 
3828.253989  	-0.057567 
3829.685647  	-0.056575 
3831.117305  	-0.056225 
3832.548964  	-0.056474 
3833.980622  	-0.056435 
3835.412280  	-0.056056 
3836.843938  	-0.055634 
3838.275596  	-0.055733 
3839.707255  	-0.055990 
3841.138913  	-0.056108 
3842.570571  	-0.056338 
3844.002229  	-0.056555 
3845.433887  	-0.057009 
3846.865545  	-0.056992 
3848.297204  	-0.056456 
3849.728862  	-0.056557 
3851.160520  	-0.055951 
3852.592178  	-0.053407 
3854.023836  	-0.053821 
3855.455495  	-0.057216 
3856.887153  	-0.057259 
3858.318811  	-0.057271 
3859.750469  	-0.057108 
3861.182127  	-0.056593 
3862.613786  	-0.056319 
3864.045444  	-0.055473 
3865.477102  	-0.055683 
3866.908760  	-0.056889 
3868.340418  	-0.055696 
3869.772076  	-0.054629 
3871.203735  	-0.056985 
3872.635393  	-0.056963 
3874.067051  	-0.056053 
3875.498709  	-0.057242 
3876.930367  	-0.057477 
3878.362026  	-0.056406 
3879.793684  	-0.055888 
3881.225342  	-0.056348 
3882.657000  	-0.056636 
3884.088658  	-0.055685 
3885.520316  	-0.054689 
3886.951975  	-0.056494 
3888.383633  	-0.057371 
3889.815291  	-0.056129 
3891.246949  	-0.055936 
3892.678607  	-0.057163 
3894.110266  	-0.057148 
3895.541924  	-0.056992 
3896.973582  	-0.056589 
3898.405240  	-0.055509 
3899.836898  	-0.055425 
3901.268557  	-0.056046 
3902.700215  	-0.055828 
3904.131873  	-0.055875 
3905.563531  	-0.056340 
3906.995189  	-0.056730 
3908.426847  	-0.057185 
3909.858506  	-0.057225 
3911.290164  	-0.057126 
3912.721822  	-0.057334 
3914.153480  	-0.057092 
3915.585138  	-0.056447 
3917.016797  	-0.056076 
3918.448455  	-0.055859 
3919.880113  	-0.055879 
3921.311771  	-0.056324 
3922.743429  	-0.056283 
3924.175088  	-0.055866 
3925.606746  	-0.056271 
3927.038404  	-0.056746 
3928.470062  	-0.056451 
3929.901720  	-0.056292 
3931.333378  	-0.056373 
3932.765037  	-0.056490 
3934.196695  	-0.056927 
3935.628353  	-0.056868 
3937.060011  	-0.056387 
3938.491669  	-0.056325 
3939.923328  	-0.056150 
3941.354986  	-0.055581 
3942.786644  	-0.055469 
3944.218302  	-0.055923 
3945.649960  	-0.056225 
3947.081618  	-0.056257 
3948.513277  	-0.056295 
3949.944935  	-0.056322 
3951.376593  	-0.056167 
3952.808251  	-0.056152 
3954.239909  	-0.056252 
3955.671568  	-0.056308 
3957.103226  	-0.056526 
3958.534884  	-0.056465 
3959.966542  	-0.056024 
3961.398200  	-0.055838 
3962.829859  	-0.055820 
3964.261517  	-0.055896 
3965.693175  	-0.056001 
3967.124833  	-0.055829 
3968.556491  	-0.055673 
3969.988149  	-0.055495 
3971.419808  	-0.055486 
3972.851466  	-0.056098 
3974.283124  	-0.056244 
3975.714782  	-0.055779 
3977.146440  	-0.055818 
3978.578099  	-0.055966 
3980.009757  	-0.056118 
3981.441415  	-0.056296 
3982.873073  	-0.055787 
3984.304731  	-0.055447 
3985.736389  	-0.055793 
3987.168048  	-0.055896 
3988.599706  	-0.055766 
3990.031364  	-0.055651 
3991.463022  	-0.055617 
3992.894680  	-0.055764 
3994.326339  	-0.055799 
3995.757997  	-0.055938 
3997.189655  	-0.056053 
3998.621313  	-0.055742 
4000.052971  	-0.055681 