##TITLE=No Description
##DATA TYPE=INFRARED SPECTRUM
##XUNITS=1/CM
##YUNITS=Abs
399.432634  	0.045587 
400.864292  	0.055705 
402.295950  	0.071505 
403.727608  	0.080514 
405.159267  	0.076068 
406.590925  	0.064663 
408.022583  	0.064292 
409.454241  	0.071543 
410.885899  	0.068638 
412.317558  	0.047743 
413.749216  	0.028022 
415.180874  	0.039687 
416.612532  	0.058915 
418.044190  	0.059197 
419.475848  	0.055016 
420.907507  	0.039556 
422.339165  	0.021436 
423.770823  	0.033984 
425.202481  	0.048063 
426.634139  	0.030109 
428.065798  	0.025786 
429.497456  	0.034709 
430.929114  	0.023723 
432.360772  	0.021250 
433.792430  	0.033515 
435.224089  	0.028738 
436.655747  	0.021507 
438.087405  	0.029074 
439.519063  	0.029901 
440.950721  	0.027795 
442.382379  	0.038612 
443.814038  	0.047256 
445.245696  	0.037589 
446.677354  	0.026539 
448.109012  	0.029978 
449.540670  	0.033159 
450.972329  	0.027434 
452.403987  	0.027047 
453.835645  	0.032766 
455.267303  	0.032559 
456.698961  	0.028419 
458.130619  	0.026527 
459.562278  	0.030121 
460.993936  	0.034960 
462.425594  	0.037026 
463.857252  	0.039354 
465.288910  	0.044459 
466.720569  	0.047931 
468.152227  	0.047073 
469.583885  	0.045642 
471.015543  	0.046023 
472.447201  	0.044590 
473.878860  	0.041096 
475.310518  	0.041249 
476.742176  	0.042882 
478.173834  	0.044226 
479.605492  	0.047591 
481.037150  	0.049813 
482.468809  	0.049258 
483.900467  	0.051464 
485.332125  	0.059179 
486.763783  	0.067459 
488.195441  	0.067765 
489.627100  	0.061738 
491.058758  	0.061335 
492.490416  	0.063203 
493.922074  	0.059344 
495.353732  	0.058458 
496.785391  	0.060061 
498.217049  	0.058280 
499.648707  	0.057416 
501.080365  	0.055649 
502.512023  	0.053110 
503.943681  	0.057823 
505.375340  	0.062548 
506.806998  	0.060756 
508.238656  	0.058366 
509.670314  	0.057249 
511.101972  	0.056922 
512.533631  	0.059860 
513.965289  	0.062906 
515.396947  	0.064196 
516.828605  	0.066084 
518.260263  	0.066719 
519.691921  	0.066217 
521.123580  	0.069269 
522.555238  	0.074666 
523.986896  	0.079090 
525.418554  	0.082982 
526.850212  	0.085993 
528.281871  	0.088456 
529.713529  	0.091831 
531.145187  	0.096395 
532.576845  	0.103847 
534.008503  	0.112686 
535.440162  	0.118360 
536.871820  	0.123048 
538.303478  	0.129746 
539.735136  	0.136347 
541.166794  	0.144472 
542.598452  	0.154416 
544.030111  	0.162964 
545.461769  	0.171689 
546.893427  	0.180944 
548.325085  	0.189489 
549.756743  	0.197997 
551.188402  	0.203106 
552.620060  	0.204915 
554.051718  	0.204846 
555.483376  	0.198539 
556.915034  	0.188790 
558.346692  	0.178926 
559.778351  	0.167571 
561.210009  	0.158151 
562.641667  	0.147995 
564.073325  	0.132273 
565.504983  	0.114484 
566.936642  	0.093547 
568.368300  	0.069700 
569.799958  	0.051681 
571.231616  	0.043432 
572.663274  	0.043183 
574.094933  	0.046395 
575.526591  	0.049152 
576.958249  	0.050515 
578.389907  	0.049044 
579.821565  	0.045245 
581.253223  	0.042495 
582.684882  	0.040437 
584.116540  	0.037841 
585.548198  	0.036457 
586.979856  	0.035597 
588.411514  	0.033838 
589.843173  	0.031647 
591.274831  	0.029331 
592.706489  	0.028313 
594.138147  	0.028679 
595.569805  	0.028017 
597.001464  	0.026593 
598.433122  	0.025985 
599.864780  	0.025629 
601.296438  	0.025007 
602.728096  	0.024223 
604.159754  	0.023063 
605.591413  	0.021810 
607.023071  	0.021247 
608.454729  	0.021611 
609.886387  	0.022140 
611.318045  	0.022080 
612.749704  	0.021626 
614.181362  	0.021078 
615.613020  	0.020872 
617.044678  	0.021205 
618.476336  	0.021573 
619.907994  	0.022259 
621.339653  	0.023559 
622.771311  	0.024862 
624.202969  	0.026296 
625.634627  	0.027769 
627.066285  	0.028939 
628.497944  	0.030576 
629.929602  	0.032688 
631.361260  	0.034281 
632.792918  	0.034642 
634.224576  	0.034052 
635.656235  	0.033402 
637.087893  	0.032262 
638.519551  	0.030471 
639.951209  	0.028582 
641.382867  	0.026490 
642.814525  	0.025707 
644.246184  	0.026806 
645.677842  	0.026991 
647.109500  	0.027196 
648.541158  	0.029000 
649.972816  	0.028889 
651.404475  	0.027975 
652.836133  	0.029488 
654.267791  	0.030315 
655.699449  	0.029493 
657.131107  	0.029301 
658.562766  	0.029501 
659.994424  	0.030086 
661.426082  	0.030582 
662.857740  	0.029961 
664.289398  	0.029582 
665.721056  	0.031194 
667.152715  	0.036907 
668.584373  	0.042106 
670.016031  	0.036303 
671.447689  	0.033377 
672.879347  	0.034999 
674.311006  	0.036852 
675.742664  	0.037579 
677.174322  	0.038563 
678.605980  	0.039311 
680.037638  	0.040131 
681.469296  	0.041418 
682.900955  	0.043853 
684.332613  	0.047675 
685.764271  	0.050865 
687.195929  	0.052997 
688.627587  	0.054028 
690.059246  	0.053071 
691.490904  	0.051817 
692.922562  	0.051450 
694.354220  	0.052322 
695.785878  	0.055222 
697.217537  	0.058694 
698.649195  	0.061495 
700.080853  	0.065045 
701.512511  	0.069638 
702.944169  	0.073931 
704.375827  	0.077282 
705.807486  	0.079712 
707.239144  	0.080286 
708.670802  	0.078737 
710.102460  	0.076710 
711.534118  	0.073636 
712.965777  	0.069406 
714.397435  	0.066671 
715.829093  	0.065003 
717.260751  	0.063032 
718.692409  	0.061834 
720.124067  	0.061756 
721.555726  	0.062925 
722.987384  	0.065394 
724.419042  	0.067893 
725.850700  	0.069903 
727.282358  	0.071445 
728.714017  	0.072384 
730.145675  	0.073066 
731.577333  	0.073284 
733.008991  	0.072576 
734.440649  	0.070763 
735.872308  	0.068758 
737.303966  	0.068460 
738.735624  	0.069720 
740.167282  	0.071703 
741.598940  	0.074561 
743.030598  	0.077507 
744.462257  	0.080952 
745.893915  	0.085725 
747.325573  	0.090583 
748.757231  	0.096025 
750.188889  	0.102557 
751.620548  	0.108439 
753.052206  	0.113771 
754.483864  	0.118777 
755.915522  	0.123090 
757.347180  	0.127003 
758.778839  	0.129194 
760.210497  	0.129614 
761.642155  	0.129910 
763.073813  	0.130317 
764.505471  	0.131145 
765.937129  	0.132082 
767.368788  	0.131778 
768.800446  	0.129472 
770.232104  	0.124409 
771.663762  	0.117008 
773.095420  	0.108194 
774.527079  	0.098544 
775.958737  	0.089605 
777.390395  	0.082292 
778.822053  	0.076645 
780.253711  	0.072731 
781.685369  	0.069448 
783.117028  	0.066285 
784.548686  	0.064267 
785.980344  	0.063089 
787.412002  	0.062079 
788.843660  	0.061684 
790.275319  	0.061831 
791.706977  	0.062126 
793.138635  	0.062630 
794.570293  	0.064241 
796.001951  	0.067763 
797.433610  	0.072285 
798.865268  	0.077864 
800.296926  	0.085997 
801.728584  	0.095973 
803.160242  	0.107003 
804.591900  	0.119474 
806.023559  	0.132204 
807.455217  	0.144005 
808.886875  	0.155162 
810.318533  	0.165366 
811.750191  	0.172856 
813.181850  	0.177468 
814.613508  	0.180003 
816.045166  	0.179348 
817.476824  	0.176923 
818.908482  	0.175795 
820.340141  	0.176549 
821.771799  	0.180582 
823.203457  	0.188618 
824.635115  	0.198665 
826.066773  	0.208919 
827.498431  	0.215786 
828.930090  	0.216230 
830.361748  	0.210946 
831.793406  	0.200450 
833.225064  	0.186548 
834.656722  	0.171396 
836.088381  	0.155883 
837.520039  	0.141872 
838.951697  	0.129954 
840.383355  	0.119413 
841.815013  	0.110689 
843.246671  	0.103602 
844.678330  	0.096441 
846.109988  	0.088402 
847.541646  	0.080257 
848.973304  	0.072053 
850.404962  	0.063098 
851.836621  	0.054247 
853.268279  	0.046554 
854.699937  	0.039889 
856.131595  	0.034052 
857.563253  	0.029093 
858.994912  	0.025584 
860.426570  	0.023705 
861.858228  	0.022487 
863.289886  	0.021906 
864.721544  	0.022605 
866.153202  	0.023930 
867.584861  	0.025800 
869.016519  	0.029055 
870.448177  	0.033221 
871.879835  	0.037786 
873.311493  	0.042862 
874.743152  	0.048148 
876.174810  	0.053906 
877.606468  	0.060283 
879.038126  	0.066949 
880.469784  	0.073929 
881.901443  	0.080563 
883.333101  	0.086467 
884.764759  	0.091329 
886.196417  	0.093682 
887.628075  	0.092871 
889.059733  	0.088087 
890.491392  	0.078503 
891.923050  	0.065493 
893.354708  	0.051331 
894.786366  	0.038711 
896.218024  	0.029767 
897.649683  	0.024371 
899.081341  	0.021383 
900.512999  	0.020129 
901.944657  	0.019774 
903.376315  	0.019686 
904.807973  	0.020147 
906.239632  	0.021474 
907.671290  	0.023110 
909.102948  	0.024456 
910.534606  	0.026036 
911.966264  	0.028257 
913.397923  	0.030781 
914.829581  	0.033397 
916.261239  	0.035497 
917.692897  	0.036909 
919.124555  	0.037931 
920.556214  	0.037647 
921.987872  	0.036038 
923.419530  	0.034306 
924.851188  	0.032810 
926.282846  	0.032247 
927.714504  	0.033105 
929.146163  	0.034743 
930.577821  	0.037079 
932.009479  	0.039703 
933.441137  	0.041802 
934.872795  	0.043362 
936.304454  	0.044223 
937.736112  	0.044869 
939.167770  	0.045985 
940.599428  	0.047004 
942.031086  	0.047885 
943.462744  	0.048662 
944.894403  	0.048493 
946.326061  	0.047576 
947.757719  	0.046669 
949.189377  	0.045993 
950.621035  	0.045695 
952.052694  	0.045934 
953.484352  	0.047179 
954.916010  	0.049467 
956.347668  	0.051838 
957.779326  	0.053757 
959.210985  	0.055115 
960.642643  	0.055783 
962.074301  	0.056052 
963.505959  	0.056166 
964.937617  	0.056104 
966.369275  	0.056073 
967.800934  	0.056508 
969.232592  	0.057383 
970.664250  	0.058387 
972.095908  	0.059684 
973.527566  	0.061145 
974.959225  	0.062533 
976.390883  	0.064483 
977.822541  	0.067028 
979.254199  	0.069734 
980.685857  	0.072947 
982.117516  	0.076681 
983.549174  	0.080972 
984.980832  	0.086183 
986.412490  	0.092398 
987.844148  	0.099802 
989.275806  	0.107459 
990.707465  	0.114443 
992.139123  	0.120979 
993.570781  	0.125745 
995.002439  	0.128822 
996.434097  	0.132682 
997.865756  	0.138423 
999.297414  	0.147998 
1000.729072  	0.162884 
1002.160730  	0.180730 
1003.592388  	0.198030 
1005.024046  	0.210328 
1006.455705  	0.216171 
1007.887363  	0.219485 
1009.319021  	0.225329 
1010.750679  	0.242014 
1012.182337  	0.271058 
1013.613996  	0.290949 
1015.045654  	0.274522 
1016.477312  	0.224158 
1017.908970  	0.166821 
1019.340628  	0.120545 
1020.772287  	0.087941 
1022.203945  	0.065815 
1023.635603  	0.049680 
1025.067261  	0.037718 
1026.498919  	0.030688 
1027.930577  	0.027762 
1029.362236  	0.026922 
1030.793894  	0.027655 
1032.225552  	0.029369 
1033.657210  	0.031305 
1035.088868  	0.034012 
1036.520527  	0.036763 
1037.952185  	0.038632 
1039.383843  	0.040857 
1040.815501  	0.043619 
1042.247159  	0.046042 
1043.678818  	0.048502 
1045.110476  	0.051119 
1046.542134  	0.053457 
1047.973792  	0.055804 
1049.405450  	0.058581 
1050.837108  	0.061361 
1052.268767  	0.063809 
1053.700425  	0.066279 
1055.132083  	0.068665 
1056.563741  	0.071189 
1057.995399  	0.074471 
1059.427058  	0.078031 
1060.858716  	0.081646 
1062.290374  	0.085374 
1063.722032  	0.089128 
1065.153690  	0.093848 
1066.585348  	0.099595 
1068.017007  	0.106129 
1069.448665  	0.114308 
1070.880323  	0.124082 
1072.311981  	0.136385 
1073.743639  	0.152864 
1075.175298  	0.174690 
1076.606956  	0.203826 
1078.038614  	0.233090 
1079.470272  	0.246360 
1080.901930  	0.237200 
1082.333589  	0.209677 
1083.765247  	0.174505 
1085.196905  	0.141718 
1086.628563  	0.116422 
1088.060221  	0.101093 
1089.491879  	0.094790 
1090.923538  	0.095065 
1092.355196  	0.099996 
1093.786854  	0.107430 
1095.218512  	0.116834 
1096.650170  	0.128780 
1098.081829  	0.141478 
1099.513487  	0.153349 
1100.945145  	0.161775 
1102.376803  	0.163993 
1103.808461  	0.162828 
1105.240120  	0.160803 
1106.671778  	0.159334 
1108.103436  	0.159866 
1109.535094  	0.159812 
1110.966752  	0.157674 
1112.398410  	0.154446 
1113.830069  	0.150775 
1115.261727  	0.148632 
1116.693385  	0.148048 
1118.125043  	0.148165 
1119.556701  	0.150192 
1120.988360  	0.153602 
1122.420018  	0.157743 
1123.851676  	0.163098 
1125.283334  	0.169225 
1126.714992  	0.176649 
1128.146650  	0.184618 
1129.578309  	0.192276 
1131.009967  	0.201186 
1132.441625  	0.210391 
1133.873283  	0.219736 
1135.304941  	0.230477 
1136.736600  	0.241194 
1138.168258  	0.252903 
1139.599916  	0.265694 
1141.031574  	0.278099 
1142.463232  	0.291851 
1143.894891  	0.305434 
1145.326549  	0.318817 
1146.758207  	0.333794 
1148.189865  	0.347272 
1149.621523  	0.360971 
1151.053181  	0.374915 
1152.484840  	0.385968 
1153.916498  	0.398109 
1155.348156  	0.408235 
1156.779814  	0.413206 
1158.211472  	0.415874 
1159.643131  	0.410859 
1161.074789  	0.398304 
1162.506447  	0.380028 
1163.938105  	0.354131 
1165.369763  	0.325361 
1166.801421  	0.294585 
1168.233080  	0.264501 
1169.664738  	0.242292 
1171.096396  	0.230195 
1172.528054  	0.231211 
1173.959712  	0.246605 
1175.391371  	0.269814 
1176.823029  	0.294748 
1178.254687  	0.316799 
1179.686345  	0.334105 
1181.118003  	0.351997 
1182.549662  	0.369741 
1183.981320  	0.384819 
1185.412978  	0.395940 
1186.844636  	0.397232 
1188.276294  	0.391974 
1189.707952  	0.382478 
1191.139611  	0.367044 
1192.571269  	0.350681 
1194.002927  	0.332812 
1195.434585  	0.313005 
1196.866243  	0.293758 
1198.297902  	0.273154 
1199.729560  	0.252971 
1201.161218  	0.234381 
1202.592876  	0.216647 
1204.024534  	0.203305 
1205.456193  	0.196286 
1206.887851  	0.197768 
1208.319509  	0.210947 
1209.751167  	0.232520 
1211.182825  	0.257900 
1212.614483  	0.283466 
1214.046142  	0.302662 
1215.477800  	0.315602 
1216.909458  	0.323130 
1218.341116  	0.324734 
1219.772774  	0.324024 
1221.204433  	0.319706 
1222.636091  	0.312822 
1224.067749  	0.305999 
1225.499407  	0.297165 
1226.931065  	0.288663 
1228.362723  	0.280637 
1229.794382  	0.271168 
1231.226040  	0.262812 
1232.657698  	0.254436 
1234.089356  	0.245794 
1235.521014  	0.238421 
1236.952673  	0.230274 
1238.384331  	0.222576 
1239.815989  	0.215799 
1241.247647  	0.208116 
1242.679305  	0.201068 
1244.110964  	0.193814 
1245.542622  	0.185353 
1246.974280  	0.176815 
1248.405938  	0.167030 
1249.837596  	0.156466 
1251.269254  	0.145458 
1252.700913  	0.133060 
1254.132571  	0.120482 
1255.564229  	0.107340 
1256.995887  	0.093469 
1258.427545  	0.080302 
1259.859204  	0.067328 
1261.290862  	0.054809 
1262.722520  	0.043794 
1264.154178  	0.033949 
1265.585836  	0.025421 
1267.017495  	0.018570 
1268.449153  	0.013059 
1269.880811  	0.008730 
1271.312469  	0.005447 
1272.744127  	0.002947 
1274.175785  	0.001323 
1275.607444  	0.000409 
1277.039102  	0.000059 
1278.470760  	0.000654 
1279.902418  	0.001921 
1281.334076  	0.003398 
1282.765735  	0.005339 
1284.197393  	0.007660 
1285.629051  	0.009903 
1287.060709  	0.011901 
1288.492367  	0.013840 
1289.924025  	0.015521 
1291.355684  	0.016150 
1292.787342  	0.015525 
1294.219000  	0.013859 
1295.650658  	0.011147 
1297.082316  	0.007585 
1298.513975  	0.003715 
1299.945633  	-0.000020 
1301.377291  	-0.003229 
1302.808949  	-0.005700 
1304.240607  	-0.007369 
1305.672266  	-0.007748 
1307.103924  	-0.006916 
1308.535582  	-0.005706 
1309.967240  	-0.005279 
1311.398898  	-0.006676 
1312.830556  	-0.009780 
1314.262215  	-0.013594 
1315.693873  	-0.017169 
1317.125531  	-0.019744 
1318.557189  	-0.021344 
1319.988847  	-0.022616 
1321.420506  	-0.023455 
1322.852164  	-0.023978 
1324.283822  	-0.024241 
1325.715480  	-0.024240 
1327.147138  	-0.024533 
1328.578796  	-0.024744 
1330.010455  	-0.024686 
1331.442113  	-0.024838 
1332.873771  	-0.024820 
1334.305429  	-0.024784 
1335.737087  	-0.024861 
1337.168746  	-0.024553 
1338.600404  	-0.024283 
1340.032062  	-0.024121 
1341.463720  	-0.024094 
1342.895378  	-0.024415 
1344.327037  	-0.024387 
1345.758695  	-0.024237 
1347.190353  	-0.024123 
1348.622011  	-0.023497 
1350.053669  	-0.023244 
1351.485327  	-0.023223 
1352.916986  	-0.022652 
1354.348644  	-0.022039 
1355.780302  	-0.020920 
1357.211960  	-0.019258 
1358.643618  	-0.016431 
1360.075277  	-0.010239 
1361.506935  	-0.000968 
1362.938593  	0.009264 
1364.370251  	0.013823 
1365.801909  	0.010201 
1367.233568  	0.002211 
1368.665226  	-0.006653 
1370.096884  	-0.013522 
1371.528542  	-0.017305 
1372.960200  	-0.018728 
1374.391858  	-0.019651 
1375.823517  	-0.020095 
1377.255175  	-0.019853 
1378.686833  	-0.019173 
1380.118491  	-0.017614 
1381.550149  	-0.015128 
1382.981808  	-0.010894 
1384.413466  	-0.005938 
1385.845124  	-0.002234 
1387.276782  	-0.001566 
1388.708440  	-0.004763 
1390.140098  	-0.008584 
1391.571757  	-0.012117 
1393.003415  	-0.014405 
1394.435073  	-0.015093 
1395.866731  	-0.015258 
1397.298389  	-0.014802 
1398.730048  	-0.013142 
1400.161706  	-0.010931 
1401.593364  	-0.008294 
1403.025022  	-0.004508 
1404.456680  	0.000257 
1405.888339  	0.005747 
1407.319997  	0.010472 
1408.751655  	0.012886 
1410.183313  	0.013233 
1411.614971  	0.010388 
1413.046629  	0.004903 
1414.478288  	-0.000806 
1415.909946  	-0.006777 
1417.341604  	-0.011603 
1418.773262  	-0.014586 
1420.204920  	-0.017669 
1421.636579  	-0.019252 
1423.068237  	-0.019807 
1424.499895  	-0.020623 
1425.931553  	-0.020974 
1427.363211  	-0.021122 
1428.794870  	-0.021083 
1430.226528  	-0.020525 
1431.658186  	-0.020536 
1433.089844  	-0.020354 
1434.521502  	-0.019739 
1435.953160  	-0.019346 
1437.384819  	-0.018227 
1438.816477  	-0.017304 
1440.248135  	-0.016194 
1441.679793  	-0.014158 
1443.111451  	-0.012728 
1444.543110  	-0.011410 
1445.974768  	-0.009759 
1447.406426  	-0.008432 
1448.838084  	-0.006580 
1450.269742  	-0.005387 
1451.701400  	-0.005047 
1453.133059  	-0.004715 
1454.564717  	-0.004711 
1455.996375  	-0.003730 
1457.428033  	0.000204 
1458.859691  	0.003203 
1460.291350  	0.006555 
1461.723008  	0.009430 
1463.154666  	0.011322 
1464.586324  	0.013081 
1466.017982  	0.012263 
1467.449641  	0.010910 
1468.881299  	0.009676 
1470.312957  	0.008127 
1471.744615  	0.008035 
1473.176273  	0.007360 
1474.607931  	0.006050 
1476.039590  	0.006602 
1477.471248  	0.006407 
1478.902906  	0.006860 
1480.334564  	0.009105 
1481.766222  	0.011276 
1483.197881  	0.014601 
1484.629539  	0.019369 
1486.061197  	0.024949 
1487.492855  	0.033358 
1488.924513  	0.042469 
1490.356172  	0.053162 
1491.787830  	0.068298 
1493.219488  	0.080513 
1494.651146  	0.093233 
1496.082804  	0.111873 
1497.514462  	0.129903 
1498.946121  	0.146714 
1500.377779  	0.161689 
1501.809437  	0.167476 
1503.241095  	0.168997 
1504.672753  	0.165855 
1506.104412  	0.152779 
1507.536070  	0.131216 
1508.967728  	0.106420 
1510.399386  	0.082140 
1511.831044  	0.059660 
1513.262702  	0.038751 
1514.694361  	0.023294 
1516.126019  	0.012814 
1517.557677  	0.001909 
1518.989335  	-0.005202 
1520.420993  	-0.007828 
1521.852652  	-0.012187 
1523.284310  	-0.015919 
1524.715968  	-0.017160 
1526.147626  	-0.019263 
1527.579284  	-0.020543 
1529.010943  	-0.021470 
1530.442601  	-0.022906 
1531.874259  	-0.022941 
1533.305917  	-0.022827 
1534.737575  	-0.024200 
1536.169233  	-0.024713 
1537.600892  	-0.024860 
1539.032550  	-0.024250 
1540.464208  	-0.023789 
1541.895866  	-0.025516 
1543.327524  	-0.025632 
1544.759183  	-0.025732 
1546.190841  	-0.026885 
1547.622499  	-0.026953 
1549.054157  	-0.026588 
1550.485815  	-0.026542 
1551.917473  	-0.026574 
1553.349132  	-0.026596 
1554.780790  	-0.026239 
1556.212448  	-0.025779 
1557.644106  	-0.025182 
1559.075764  	-0.023915 
1560.507423  	-0.026082 
1561.939081  	-0.026936 
1563.370739  	-0.026945 
1564.802397  	-0.027236 
1566.234055  	-0.027450 
1567.665714  	-0.027239 
1569.097372  	-0.027003 
1570.529030  	-0.026954 
1571.960688  	-0.027248 
1573.392346  	-0.027240 
1574.824004  	-0.026593 
1576.255663  	-0.026011 
1577.687321  	-0.026048 
1579.118979  	-0.025889 
1580.550637  	-0.025467 
1581.982295  	-0.024510 
1583.413954  	-0.023072 
1584.845612  	-0.021267 
1586.277270  	-0.019081 
1587.708928  	-0.016538 
1589.140586  	-0.013608 
1590.572245  	-0.011122 
1592.003903  	-0.009324 
1593.435561  	-0.008442 
1594.867219  	-0.008683 
1596.298877  	-0.009079 
1597.730535  	-0.009333 
1599.162194  	-0.009104 
1600.593852  	-0.008345 
1602.025510  	-0.007953 
1603.457168  	-0.008150 
1604.888826  	-0.009305 
1606.320485  	-0.011306 
1607.752143  	-0.013591 
1609.183801  	-0.016181 
1610.615459  	-0.018517 
1612.047117  	-0.020463 
1613.478775  	-0.021781 
1614.910434  	-0.022372 
1616.342092  	-0.022867 
1617.773750  	-0.023756 
1619.205408  	-0.024554 
1620.637066  	-0.024943 
1622.068725  	-0.024894 
1623.500383  	-0.025124 
1624.932041  	-0.025644 
1626.363699  	-0.025681 
1627.795357  	-0.025675 
1629.227016  	-0.025554 
1630.658674  	-0.025105 
1632.090332  	-0.024674 
1633.521990  	-0.024056 
1634.953648  	-0.022884 
1636.385306  	-0.021905 
1637.816965  	-0.022001 
1639.248623  	-0.022126 
1640.680281  	-0.022538 
1642.111939  	-0.022919 
1643.543597  	-0.022749 
1644.975256  	-0.022244 
1646.406914  	-0.021825 
1647.838572  	-0.022180 
1649.270230  	-0.022597 
1650.701888  	-0.022493 
1652.133547  	-0.021905 
1653.565205  	-0.021291 
1654.996863  	-0.022417 
1656.428521  	-0.022763 
1657.860179  	-0.022834 
1659.291837  	-0.023121 
1660.723496  	-0.023179 
1662.155154  	-0.022895 
1663.586812  	-0.023074 
1665.018470  	-0.023405 
1666.450128  	-0.023372 
1667.881787  	-0.023085 
1669.313445  	-0.022819 
1670.745103  	-0.023359 
1672.176761  	-0.023846 
1673.608419  	-0.023678 
1675.040077  	-0.023555 
1676.471736  	-0.023813 
1677.903394  	-0.023803 
1679.335052  	-0.023485 
1680.766710  	-0.023153 
1682.198368  	-0.022920 
1683.630027  	-0.022035 
1685.061685  	-0.022037 
1686.493343  	-0.022957 
1687.925001  	-0.022604 
1689.356659  	-0.022068 
1690.788318  	-0.021943 
1692.219976  	-0.021500 
1693.651634  	-0.020885 
1695.083292  	-0.019915 
1696.514950  	-0.019112 
1697.946608  	-0.019143 
1699.378267  	-0.017982 
1700.809925  	-0.016970 
1702.241583  	-0.017499 
1703.673241  	-0.016403 
1705.104899  	-0.015445 
1706.536558  	-0.014989 
1707.968216  	-0.013846 
1709.399874  	-0.013292 
1710.831532  	-0.012653 
1712.263190  	-0.011490 
1713.694849  	-0.010621 
1715.126507  	-0.009064 
1716.558165  	-0.007598 
1717.989823  	-0.006782 
1719.421481  	-0.005393 
1720.853139  	-0.004714 
1722.284798  	-0.003406 
1723.716456  	-0.001363 
1725.148114  	-0.000191 
1726.579772  	0.001602 
1728.011430  	0.003580 
1729.443089  	0.005054 
1730.874747  	0.007326 
1732.306405  	0.008723 
1733.738063  	0.010139 
1735.169721  	0.012897 
1736.601379  	0.013743 
1738.033038  	0.015883 
1739.464696  	0.018963 
1740.896354  	0.021075 
1742.328012  	0.024573 
1743.759670  	0.028059 
1745.191329  	0.031740 
1746.622987  	0.037271 
1748.054645  	0.042226 
1749.486303  	0.048526 
1750.917961  	0.057018 
1752.349620  	0.065734 
1753.781278  	0.076842 
1755.212936  	0.088005 
1756.644594  	0.101334 
1758.076252  	0.121011 
1759.507910  	0.137861 
1760.939569  	0.154275 
1762.371227  	0.177238 
1763.802885  	0.194183 
1765.234543  	0.203928 
1766.666201  	0.212292 
1768.097860  	0.214581 
1769.529518  	0.213548 
1770.961176  	0.210758 
1772.392834  	0.200632 
1773.824492  	0.191280 
1775.256150  	0.181759 
1776.687809  	0.168293 
1778.119467  	0.157159 
1779.551125  	0.145492 
1780.982783  	0.131240 
1782.414441  	0.119775 
1783.846100  	0.107287 
1785.277758  	0.093880 
1786.709416  	0.082632 
1788.141074  	0.069841 
1789.572732  	0.058592 
1791.004391  	0.049389 
1792.436049  	0.036223 
1793.867707  	0.025686 
1795.299365  	0.017774 
1796.731023  	0.008774 
1798.162681  	0.003093 
1799.594340  	-0.002098 
1801.025998  	-0.007691 
1802.457656  	-0.010713 
1803.889314  	-0.014738 
1805.320972  	-0.017555 
1806.752631  	-0.019044 
1808.184289  	-0.021892 
1809.615947  	-0.022885 
1811.047605  	-0.023665 
1812.479263  	-0.025443 
1813.910922  	-0.025649 
1815.342580  	-0.026808 
1816.774238  	-0.027842 
1818.205896  	-0.027914 
1819.637554  	-0.029090 
1821.069212  	-0.028884 
1822.500871  	-0.028783 
1823.932529  	-0.029624 
1825.364187  	-0.028871 
1826.795845  	-0.029747 
1828.227503  	-0.030636 
1829.659162  	-0.029610 
1831.090820  	-0.030252 
1832.522478  	-0.030562 
1833.954136  	-0.030722 
1835.385794  	-0.031706 
1836.817452  	-0.030991 
1838.249111  	-0.030964 
1839.680769  	-0.031634 
1841.112427  	-0.030982 
1842.544085  	-0.031314 
1843.975743  	-0.031525 
1845.407402  	-0.031277 
1846.839060  	-0.031937 
1848.270718  	-0.031327 
1849.702376  	-0.031392 
1851.134034  	-0.031801 
1852.565693  	-0.030848 
1853.997351  	-0.031368 
1855.429009  	-0.031779 
1856.860667  	-0.031003 
1858.292325  	-0.031249 
1859.723983  	-0.031016 
1861.155642  	-0.031348 
1862.587300  	-0.032354 
1864.018958  	-0.031776 
1865.450616  	-0.031732 
1866.882274  	-0.031384 
1868.313933  	-0.030416 
1869.745591  	-0.031848 
1871.177249  	-0.031644 
1872.608907  	-0.030657 
1874.040565  	-0.031237 
1875.472224  	-0.030743 
1876.903882  	-0.030533 
1878.335540  	-0.031179 
1879.767198  	-0.030913 
1881.198856  	-0.031156 
1882.630514  	-0.030795 
1884.062173  	-0.029996 
1885.493831  	-0.030329 
1886.925489  	-0.029845 
1888.357147  	-0.029406 
1889.788805  	-0.029420 
1891.220464  	-0.028798 
1892.652122  	-0.029157 
1894.083780  	-0.028908 
1895.515438  	-0.027859 
1896.947096  	-0.028255 
1898.378754  	-0.028508 
1899.810413  	-0.028570 
1901.242071  	-0.028426 
1902.673729  	-0.027806 
1904.105387  	-0.028541 
1905.537045  	-0.028904 
1906.968704  	-0.028872 
1908.400362  	-0.029909 
1909.832020  	-0.029910 
1911.263678  	-0.030757 
1912.695336  	-0.032250 
1914.126995  	-0.031552 
1915.558653  	-0.031850 
1916.990311  	-0.032425 
1918.421969  	-0.031653 
1919.853627  	-0.032699 
1921.285285  	-0.032697 
1922.716944  	-0.031947 
1924.148602  	-0.032880 
1925.580260  	-0.032227 
1927.011918  	-0.031862 
1928.443576  	-0.032896 
1929.875235  	-0.033095 
1931.306893  	-0.033833 
1932.738551  	-0.033586 
1934.170209  	-0.032900 
1935.601867  	-0.034045 
1937.033525  	-0.033511 
1938.465184  	-0.032409 
1939.896842  	-0.032364 
1941.328500  	-0.031792 
1942.760158  	-0.032801 
1944.191816  	-0.033279 
1945.623475  	-0.032560 
1947.055133  	-0.033232 
1948.486791  	-0.032373 
1949.918449  	-0.031481 
1951.350107  	-0.031714 
1952.781766  	-0.031066 
1954.213424  	-0.032048 
1955.645082  	-0.032207 
1957.076740  	-0.031638 
1958.508398  	-0.033849 
1959.940056  	-0.032347 
1961.371715  	-0.029689 
1962.803373  	-0.031184 
1964.235031  	-0.030569 
1965.666689  	-0.029862 
1967.098347  	-0.030287 
1968.530006  	-0.029797 
1969.961664  	-0.031559 
1971.393322  	-0.031094 
1972.824980  	-0.030143 
1974.256638  	-0.032693 
1975.688297  	-0.031789 
1977.119955  	-0.031031 
1978.551613  	-0.032275 
1979.983271  	-0.030642 
1981.414929  	-0.030321 
1982.846587  	-0.029786 
1984.278246  	-0.029923 
1985.709904  	-0.032573 
1987.141562  	-0.032019 
1988.573220  	-0.031774 
1990.004878  	-0.032783 
1991.436537  	-0.030061 
1992.868195  	-0.030102 
1994.299853  	-0.032252 
1995.731511  	-0.031909 
1997.163169  	-0.032089 
1998.594827  	-0.030978 
2000.026486  	-0.030640 
2001.458144  	-0.031944 
2002.889802  	-0.030177 
2004.321460  	-0.030344 
2005.753118  	-0.032108 
2007.184777  	-0.030680 
2008.616435  	-0.031097 
2010.048093  	-0.031725 
2011.479751  	-0.032039 
2012.911409  	-0.034102 
2014.343068  	-0.033041 
2015.774726  	-0.031114 
2017.206384  	-0.029275 
2018.638042  	-0.027778 
2020.069700  	-0.031142 
2021.501358  	-0.032360 
2022.933017  	-0.030709 
2024.364675  	-0.032271 
2025.796333  	-0.031195 
2027.227991  	-0.029561 
2028.659649  	-0.030106 
2030.091308  	-0.028678 
2031.522966  	-0.029314 
2032.954624  	-0.030287 
2034.386282  	-0.029305 
2035.817940  	-0.030067 
2037.249599  	-0.029531 
2038.681257  	-0.029528 
2040.112915  	-0.030657 
2041.544573  	-0.029174 
2042.976231  	-0.029735 
2044.407889  	-0.031061 
2045.839548  	-0.030056 
2047.271206  	-0.030427 
2048.702864  	-0.030574 
2050.134522  	-0.030629 
2051.566180  	-0.031205 
2052.997839  	-0.029965 
2054.429497  	-0.029676 
2055.861155  	-0.030028 
2057.292813  	-0.030200 
2058.724471  	-0.032457 
2060.156129  	-0.032680 
2061.587788  	-0.031003 
2063.019446  	-0.031999 
2064.451104  	-0.033112 
2065.882762  	-0.033519 
2067.314420  	-0.033611 
2068.746079  	-0.033092 
2070.177737  	-0.034045 
2071.609395  	-0.033733 
2073.041053  	-0.032303 
2074.472711  	-0.033216 
2075.904370  	-0.032988 
2077.336028  	-0.031961 
2078.767686  	-0.033106 
2080.199344  	-0.033639 
2081.631002  	-0.033409 
2083.062660  	-0.033735 
2084.494319  	-0.034050 
2085.925977  	-0.034045 
2087.357635  	-0.033100 
2088.789293  	-0.032975 
2090.220951  	-0.033741 
2091.652610  	-0.033359 
2093.084268  	-0.033495 
2094.515926  	-0.033679 
2095.947584  	-0.033178 
2097.379242  	-0.034291 
2098.810901  	-0.034643 
2100.242559  	-0.033508 
2101.674217  	-0.033624 
2103.105875  	-0.033950 
2104.537533  	-0.034439 
2105.969191  	-0.035032 
2107.400850  	-0.034610 
2108.832508  	-0.034590 
2110.264166  	-0.034380 
2111.695824  	-0.033782 
2113.127482  	-0.034031 
2114.559141  	-0.033870 
2115.990799  	-0.033952 
2117.422457  	-0.034601 
2118.854115  	-0.034427 
2120.285773  	-0.034672 
2121.717431  	-0.034839 
2123.149090  	-0.034605 
2124.580748  	-0.035478 
2126.012406  	-0.035223 
2127.444064  	-0.033916 
2128.875722  	-0.034142 
2130.307381  	-0.034365 
2131.739039  	-0.033781 
2133.170697  	-0.033252 
2134.602355  	-0.033300 
2136.034013  	-0.033450 
2137.465672  	-0.031717 
2138.897330  	-0.030895 
2140.328988  	-0.032768 
2141.760646  	-0.033691 
2143.192304  	-0.033861 
2144.623962  	-0.033703 
2146.055621  	-0.032933 
2147.487279  	-0.033471 
2148.918937  	-0.032746 
2150.350595  	-0.031295 
2151.782253  	-0.031760 
2153.213912  	-0.031328 
2154.645570  	-0.031164 
2156.077228  	-0.031673 
2157.508886  	-0.031138 
2158.940544  	-0.031635 
2160.372202  	-0.029429 
2161.803861  	-0.027858 
2163.235519  	-0.031611 
2164.667177  	-0.033157 
2166.098835  	-0.031769 
2167.530493  	-0.031144 
2168.962152  	-0.031585 
2170.393810  	-0.033837 
2171.825468  	-0.033202 
2173.257126  	-0.030878 
2174.688784  	-0.032126 
2176.120443  	-0.031956 
2177.552101  	-0.030756 
2178.983759  	-0.031410 
2180.415417  	-0.030399 
2181.847075  	-0.030374 
2183.278733  	-0.031255 
2184.710392  	-0.030274 
2186.142050  	-0.030658 
2187.573708  	-0.030516 
2189.005366  	-0.029273 
2190.437024  	-0.030319 
2191.868683  	-0.031296 
2193.300341  	-0.031444 
2194.731999  	-0.031603 
2196.163657  	-0.031111 
2197.595315  	-0.031649 
2199.026974  	-0.032281 
2200.458632  	-0.031891 
2201.890290  	-0.031947 
2203.321948  	-0.032298 
2204.753606  	-0.032754 
2206.185264  	-0.032426 
2207.616923  	-0.031903 
2209.048581  	-0.032875 
2210.480239  	-0.032870 
2211.911897  	-0.032036 
2213.343555  	-0.031864 
2214.775214  	-0.030827 
2216.206872  	-0.030909 
2217.638530  	-0.031850 
2219.070188  	-0.031361 
2220.501846  	-0.031077 
2221.933504  	-0.030234 
2223.365163  	-0.029830 
2224.796821  	-0.031511 
2226.228479  	-0.031228 
2227.660137  	-0.030220 
2229.091795  	-0.031191 
2230.523454  	-0.031384 
2231.955112  	-0.031521 
2233.386770  	-0.031664 
2234.818428  	-0.030760 
2236.250086  	-0.031236 
2237.681745  	-0.031819 
2239.113403  	-0.031192 
2240.545061  	-0.031279 
2241.976719  	-0.031822 
2243.408377  	-0.032190 
2244.840035  	-0.031987 
2246.271694  	-0.032181 
2247.703352  	-0.033431 
2249.135010  	-0.032828 
2250.566668  	-0.031916 
2251.998326  	-0.033052 
2253.429985  	-0.032969 
2254.861643  	-0.032430 
2256.293301  	-0.032640 
2257.724959  	-0.031670 
2259.156617  	-0.031806 
2260.588276  	-0.033109 
2262.019934  	-0.033253 
2263.451592  	-0.033569 
2264.883250  	-0.033925 
2266.314908  	-0.034135 
2267.746566  	-0.035084 
2269.178225  	-0.035424 
2270.609883  	-0.034882 
2272.041541  	-0.033858 
2273.473199  	-0.033283 
2274.904857  	-0.034696 
2276.336516  	-0.036004 
2277.768174  	-0.035689 
2279.199832  	-0.035428 
2280.631490  	-0.035406 
2282.063148  	-0.035198 
2283.494806  	-0.034941 
2284.926465  	-0.035065 
2286.358123  	-0.035603 
2287.789781  	-0.035387 
2289.221439  	-0.035147 
2290.653097  	-0.035530 
2292.084756  	-0.034942 
2293.516414  	-0.034189 
2294.948072  	-0.034291 
2296.379730  	-0.034041 
2297.811388  	-0.033772 
2299.243047  	-0.033740 
2300.674705  	-0.033137 
2302.106363  	-0.032342 
2303.538021  	-0.031848 
2304.969679  	-0.031673 
2306.401337  	-0.031204 
2307.832996  	-0.030142 
2309.264654  	-0.029448 
2310.696312  	-0.028956 
2312.127970  	-0.028331 
2313.559628  	-0.028271 
2314.991287  	-0.028278 
2316.422945  	-0.027825 
2317.854603  	-0.026846 
2319.286261  	-0.025172 
2320.717919  	-0.023769 
2322.149577  	-0.023081 
2323.581236  	-0.022961 
2325.012894  	-0.023212 
2326.444552  	-0.022619 
2327.876210  	-0.021253 
2329.307868  	-0.020169 
2330.739527  	-0.019575 
2332.171185  	-0.019850 
2333.602843  	-0.020538 
2335.034501  	-0.020806 
2336.466159  	-0.020799 
2337.897818  	-0.020186 
2339.329476  	-0.019380 
2340.761134  	-0.018950 
2342.192792  	-0.018457 
2343.624450  	-0.018596 
2345.056108  	-0.019420 
2346.487767  	-0.021215 
2347.919425  	-0.024383 
2349.351083  	-0.025639 
2350.782741  	-0.023287 
2352.214399  	-0.020140 
2353.646058  	-0.018540 
2355.077716  	-0.016754 
2356.509374  	-0.014696 
2357.941032  	-0.013594 
2359.372690  	-0.013262 
2360.804349  	-0.013415 
2362.236007  	-0.013748 
2363.667665  	-0.014278 
2365.099323  	-0.015075 
2366.530981  	-0.016261 
2367.962639  	-0.017617 
2369.394298  	-0.018616 
2370.825956  	-0.019997 
2372.257614  	-0.021916 
2373.689272  	-0.023623 
2375.120930  	-0.025167 
2376.552589  	-0.026291 
2377.984247  	-0.027414 
2379.415905  	-0.029202 
2380.847563  	-0.030805 
2382.279221  	-0.032169 
2383.710879  	-0.033598 
2385.142538  	-0.034417 
2386.574196  	-0.034871 
2388.005854  	-0.035109 
2389.437512  	-0.034827 
2390.869170  	-0.034818 
2392.300829  	-0.035173 
2393.732487  	-0.035096 
2395.164145  	-0.034849 
2396.595803  	-0.035056 
2398.027461  	-0.035427 
2399.459120  	-0.035334 
2400.890778  	-0.035163 
2402.322436  	-0.035192 
2403.754094  	-0.034785 
2405.185752  	-0.034480 
2406.617410  	-0.034736 
2408.049069  	-0.034611 
2409.480727  	-0.034254 
2410.912385  	-0.034267 
2412.344043  	-0.034535 
2413.775701  	-0.034975 
2415.207360  	-0.035067 
2416.639018  	-0.034835 
2418.070676  	-0.034921 
2419.502334  	-0.035126 
2420.933992  	-0.035248 
2422.365651  	-0.035223 
2423.797309  	-0.035090 
2425.228967  	-0.035218 
2426.660625  	-0.035334 
2428.092283  	-0.035381 
2429.523941  	-0.035393 
2430.955600  	-0.034947 
2432.387258  	-0.034970 
2433.818916  	-0.035905 
2435.250574  	-0.036279 
2436.682232  	-0.035758 
2438.113891  	-0.035301 
2439.545549  	-0.035402 
2440.977207  	-0.035576 
2442.408865  	-0.035300 
2443.840523  	-0.035250 
2445.272181  	-0.035450 
2446.703840  	-0.035370 
2448.135498  	-0.035532 
2449.567156  	-0.035670 
2450.998814  	-0.035544 
2452.430472  	-0.035768 
2453.862131  	-0.035907 
2455.293789  	-0.035980 
2456.725447  	-0.036245 
2458.157105  	-0.036048 
2459.588763  	-0.035787 
2461.020422  	-0.035698 
2462.452080  	-0.035516 
2463.883738  	-0.035816 
2465.315396  	-0.036086 
2466.747054  	-0.035821 
2468.178712  	-0.035717 
2469.610371  	-0.035608 
2471.042029  	-0.035451 
2472.473687  	-0.035586 
2473.905345  	-0.035626 
2475.337003  	-0.035574 
2476.768662  	-0.035648 
2478.200320  	-0.035784 
2479.631978  	-0.035884 
2481.063636  	-0.035866 
2482.495294  	-0.035901 
2483.926953  	-0.035706 
2485.358611  	-0.035362 
2486.790269  	-0.035705 
2488.221927  	-0.036227 
2489.653585  	-0.036351 
2491.085243  	-0.036509 
2492.516902  	-0.036520 
2493.948560  	-0.036290 
2495.380218  	-0.035992 
2496.811876  	-0.035940 
2498.243534  	-0.036557 
2499.675193  	-0.036951 
2501.106851  	-0.036853 
2502.538509  	-0.037085 
2503.970167  	-0.037182 
2505.401825  	-0.037070 
2506.833483  	-0.037037 
2508.265142  	-0.036792 
2509.696800  	-0.036844 
2511.128458  	-0.036932 
2512.560116  	-0.036855 
2513.991774  	-0.037436 
2515.423433  	-0.037660 
2516.855091  	-0.037110 
2518.286749  	-0.037094 
2519.718407  	-0.037330 
2521.150065  	-0.037471 
2522.581724  	-0.037564 
2524.013382  	-0.037254 
2525.445040  	-0.037128 
2526.876698  	-0.037498 
2528.308356  	-0.038037 
2529.740014  	-0.038179 
2531.171673  	-0.037489 
2532.603331  	-0.037144 
2534.034989  	-0.037339 
2535.466647  	-0.037333 
2536.898305  	-0.037967 
2538.329964  	-0.038383 
2539.761622  	-0.037565 
2541.193280  	-0.037207 
2542.624938  	-0.037303 
2544.056596  	-0.037097 
2545.488254  	-0.037303 
2546.919913  	-0.037711 
2548.351571  	-0.038079 
2549.783229  	-0.038236 
2551.214887  	-0.037931 
2552.646545  	-0.038009 
2554.078204  	-0.038257 
2555.509862  	-0.038114 
2556.941520  	-0.038146 
2558.373178  	-0.038199 
2559.804836  	-0.038184 
2561.236495  	-0.038281 
2562.668153  	-0.038208 
2564.099811  	-0.038117 
2565.531469  	-0.037900 
2566.963127  	-0.037767 
2568.394785  	-0.038128 
2569.826444  	-0.038189 
2571.258102  	-0.038012 
2572.689760  	-0.038062 
2574.121418  	-0.037839 
2575.553076  	-0.037711 
2576.984735  	-0.037772 
2578.416393  	-0.037743 
2579.848051  	-0.038127 
2581.279709  	-0.038222 
2582.711367  	-0.037787 
2584.143026  	-0.038099 
2585.574684  	-0.038652 
2587.006342  	-0.038310 
2588.438000  	-0.037575 
2589.869658  	-0.037335 
2591.301316  	-0.037711 
2592.732975  	-0.037991 
2594.164633  	-0.038041 
2595.596291  	-0.038318 
2597.027949  	-0.038448 
2598.459607  	-0.038362 
2599.891266  	-0.038619 
2601.322924  	-0.038989 
2602.754582  	-0.038873 
2604.186240  	-0.038345 
2605.617898  	-0.038046 
2607.049556  	-0.038048 
2608.481215  	-0.037981 
2609.912873  	-0.038062 
2611.344531  	-0.038293 
2612.776189  	-0.038409 
2614.207847  	-0.038519 
2615.639506  	-0.038500 
2617.071164  	-0.038334 
2618.502822  	-0.038134 
2619.934480  	-0.037932 
2621.366138  	-0.038121 
2622.797797  	-0.038543 
2624.229455  	-0.038824 
2625.661113  	-0.039086 
2627.092771  	-0.039123 
2628.524429  	-0.039100 
2629.956087  	-0.039156 
2631.387746  	-0.038858 
2632.819404  	-0.038864 
2634.251062  	-0.039345 
2635.682720  	-0.039280 
2637.114378  	-0.038938 
2638.546037  	-0.038790 
2639.977695  	-0.038730 
2641.409353  	-0.038933 
2642.841011  	-0.039045 
2644.272669  	-0.038951 
2645.704328  	-0.038987 
2647.135986  	-0.038990 
2648.567644  	-0.039053 
2649.999302  	-0.039105 
2651.430960  	-0.038960 
2652.862618  	-0.039088 
2654.294277  	-0.039352 
2655.725935  	-0.039338 
2657.157593  	-0.039208 
2658.589251  	-0.039038 
2660.020909  	-0.039014 
2661.452568  	-0.039038 
2662.884226  	-0.038801 
2664.315884  	-0.038657 
2665.747542  	-0.038660 
2667.179200  	-0.038637 
2668.610858  	-0.038721 
2670.042517  	-0.038731 
2671.474175  	-0.038738 
2672.905833  	-0.038786 
2674.337491  	-0.038637 
2675.769149  	-0.038702 
2677.200808  	-0.039005 
2678.632466  	-0.039086 
2680.064124  	-0.039004 
2681.495782  	-0.038731 
2682.927440  	-0.038583 
2684.359099  	-0.038807 
2685.790757  	-0.038815 
2687.222415  	-0.038716 
2688.654073  	-0.038804 
2690.085731  	-0.038747 
2691.517389  	-0.038676 
2692.949048  	-0.038625 
2694.380706  	-0.038522 
2695.812364  	-0.038636 
2697.244022  	-0.038800 
2698.675680  	-0.038886 
2700.107339  	-0.038890 
2701.538997  	-0.038784 
2702.970655  	-0.038858 
2704.402313  	-0.038829 
2705.833971  	-0.038515 
2707.265630  	-0.038434 
2708.697288  	-0.038447 
2710.128946  	-0.038380 
2711.560604  	-0.038363 
2712.992262  	-0.038261 
2714.423920  	-0.038297 
2715.855579  	-0.038420 
2717.287237  	-0.038429 
2718.718895  	-0.038610 
2720.150553  	-0.038678 
2721.582211  	-0.038586 
2723.013870  	-0.038723 
2724.445528  	-0.038685 
2725.877186  	-0.038507 
2727.308844  	-0.038546 
2728.740502  	-0.038521 
2730.172160  	-0.038495 
2731.603819  	-0.038510 
2733.035477  	-0.038442 
2734.467135  	-0.038439 
2735.898793  	-0.038406 
2737.330451  	-0.038488 
2738.762110  	-0.038712 
2740.193768  	-0.038646 
2741.625426  	-0.038542 
2743.057084  	-0.038685 
2744.488742  	-0.038918 
2745.920401  	-0.039074 
2747.352059  	-0.038896 
2748.783717  	-0.038818 
2750.215375  	-0.038998 
2751.647033  	-0.038740 
2753.078691  	-0.038539 
2754.510350  	-0.038757 
2755.942008  	-0.038637 
2757.373666  	-0.038452 
2758.805324  	-0.038439 
2760.236982  	-0.038242 
2761.668641  	-0.038287 
2763.100299  	-0.038520 
2764.531957  	-0.038463 
2765.963615  	-0.038353 
2767.395273  	-0.038214 
2768.826931  	-0.037908 
2770.258590  	-0.037636 
2771.690248  	-0.037527 
2773.121906  	-0.037554 
2774.553564  	-0.037610 
2775.985222  	-0.037639 
2777.416881  	-0.037625 
2778.848539  	-0.037617 
2780.280197  	-0.037758 
2781.711855  	-0.037849 
2783.143513  	-0.037754 
2784.575172  	-0.037759 
2786.006830  	-0.037899 
2787.438488  	-0.038023 
2788.870146  	-0.038092 
2790.301804  	-0.038091 
2791.733462  	-0.038016 
2793.165121  	-0.037815 
2794.596779  	-0.037759 
2796.028437  	-0.037951 
2797.460095  	-0.037926 
2798.891753  	-0.037850 
2800.323412  	-0.037969 
2801.755070  	-0.037930 
2803.186728  	-0.037891 
2804.618386  	-0.037885 
2806.050044  	-0.037655 
2807.481703  	-0.037573 
2808.913361  	-0.037661 
2810.345019  	-0.037661 
2811.776677  	-0.037661 
2813.208335  	-0.037656 
2814.639993  	-0.037827 
2816.071652  	-0.038017 
2817.503310  	-0.037852 
2818.934968  	-0.037753 
2820.366626  	-0.037739 
2821.798284  	-0.037535 
2823.229943  	-0.037574 
2824.661601  	-0.037775 
2826.093259  	-0.037845 
2827.524917  	-0.037859 
2828.956575  	-0.037598 
2830.388233  	-0.037354 
2831.819892  	-0.037564 
2833.251550  	-0.037757 
2834.683208  	-0.037574 
2836.114866  	-0.037213 
2837.546524  	-0.036967 
2838.978183  	-0.036953 
2840.409841  	-0.036911 
2841.841499  	-0.036676 
2843.273157  	-0.036284 
2844.704815  	-0.035776 
2846.136474  	-0.035117 
2847.568132  	-0.034190 
2848.999790  	-0.033425 
2850.431448  	-0.033182 
2851.863106  	-0.033023 
2853.294764  	-0.032961 
2854.726423  	-0.033198 
2856.158081  	-0.033306 
2857.589739  	-0.033213 
2859.021397  	-0.033028 
2860.453055  	-0.032633 
2861.884714  	-0.032033 
2863.316372  	-0.031089 
2864.748030  	-0.029889 
2866.179688  	-0.028728 
2867.611346  	-0.027529 
2869.043005  	-0.026352 
2870.474663  	-0.025394 
2871.906321  	-0.024785 
2873.337979  	-0.024733 
2874.769637  	-0.024943 
2876.201295  	-0.025140 
2877.632954  	-0.025751 
2879.064612  	-0.026721 
2880.496270  	-0.027528 
2881.927928  	-0.028209 
2883.359586  	-0.028801 
2884.791245  	-0.029027 
2886.222903  	-0.028964 
2887.654561  	-0.028956 
2889.086219  	-0.028906 
2890.517877  	-0.028688 
2891.949535  	-0.028727 
2893.381194  	-0.028996 
2894.812852  	-0.029063 
2896.244510  	-0.029233 
2897.676168  	-0.029620 
2899.107826  	-0.029685 
2900.539485  	-0.029489 
2901.971143  	-0.029308 
2903.402801  	-0.028995 
2904.834459  	-0.028613 
2906.266117  	-0.028262 
2907.697776  	-0.027746 
2909.129434  	-0.027072 
2910.561092  	-0.026419 
2911.992750  	-0.025774 
2913.424408  	-0.025025 
2914.856066  	-0.024127 
2916.287725  	-0.023410 
2917.719383  	-0.023307 
2919.151041  	-0.023503 
2920.582699  	-0.023652 
2922.014357  	-0.023898 
2923.446016  	-0.023861 
2924.877674  	-0.023291 
2926.309332  	-0.022666 
2927.740990  	-0.022047 
2929.172648  	-0.021410 
2930.604306  	-0.020904 
2932.035965  	-0.020411 
2933.467623  	-0.020238 
2934.899281  	-0.020420 
2936.330939  	-0.020461 
2937.762597  	-0.020581 
2939.194256  	-0.020855 
2940.625914  	-0.021071 
2942.057572  	-0.021482 
2943.489230  	-0.021778 
2944.920888  	-0.021819 
2946.352547  	-0.022149 
2947.784205  	-0.022384 
2949.215863  	-0.022098 
2950.647521  	-0.021565 
2952.079179  	-0.020692 
2953.510837  	-0.019500 
2954.942496  	-0.018055 
2956.374154  	-0.016045 
2957.805812  	-0.013512 
2959.237470  	-0.010766 
2960.669128  	-0.007956 
2962.100787  	-0.005025 
2963.532445  	-0.002171 
2964.964103  	-0.000048 
2966.395761  	0.001271 
2967.827419  	0.002018 
2969.259078  	0.001998 
2970.690736  	0.001336 
2972.122394  	0.000254 
2973.554052  	-0.001499 
2974.985710  	-0.003844 
2976.417368  	-0.006191 
2977.849027  	-0.008266 
2979.280685  	-0.010543 
2980.712343  	-0.013376 
2982.144001  	-0.015964 
2983.575659  	-0.017891 
2985.007318  	-0.019898 
2986.438976  	-0.021988 
2987.870634  	-0.023795 
2989.302292  	-0.025556 
2990.733950  	-0.027177 
2992.165608  	-0.028407 
2993.597267  	-0.029482 
2995.028925  	-0.030844 
2996.460583  	-0.032262 
2997.892241  	-0.032932 
2999.323899  	-0.033301 
3000.755558  	-0.034117 
3002.187216  	-0.034874 
3003.618874  	-0.035548 
3005.050532  	-0.036255 
3006.482190  	-0.036620 
3007.913849  	-0.037095 
3009.345507  	-0.037623 
3010.777165  	-0.037742 
3012.208823  	-0.037990 
3013.640481  	-0.038333 
3015.072139  	-0.038510 
3016.503798  	-0.038727 
3017.935456  	-0.038656 
3019.367114  	-0.038572 
3020.798772  	-0.038896 
3022.230430  	-0.038961 
3023.662089  	-0.038695 
3025.093747  	-0.038598 
3026.525405  	-0.038573 
3027.957063  	-0.038344 
3029.388721  	-0.037777 
3030.820380  	-0.037071 
3032.252038  	-0.036307 
3033.683696  	-0.035391 
3035.115354  	-0.034711 
3036.547012  	-0.034309 
3037.978670  	-0.033806 
3039.410329  	-0.033312 
3040.841987  	-0.033019 
3042.273645  	-0.033083 
3043.705303  	-0.033473 
3045.136961  	-0.033699 
3046.568620  	-0.033738 
3048.000278  	-0.033888 
3049.431936  	-0.034170 
3050.863594  	-0.034613 
3052.295252  	-0.034827 
3053.726910  	-0.034401 
3055.158569  	-0.033811 
3056.590227  	-0.033610 
3058.021885  	-0.033731 
3059.453543  	-0.033882 
3060.885201  	-0.033953 
3062.316860  	-0.033963 
3063.748518  	-0.033974 
3065.180176  	-0.034215 
3066.611834  	-0.034678 
3068.043492  	-0.035063 
3069.475151  	-0.035395 
3070.906809  	-0.035712 
3072.338467  	-0.035946 
3073.770125  	-0.036278 
3075.201783  	-0.036634 
3076.633441  	-0.036713 
3078.065100  	-0.036620 
3079.496758  	-0.036771 
3080.928416  	-0.037142 
3082.360074  	-0.037277 
3083.791732  	-0.037467 
3085.223391  	-0.038083 
3086.655049  	-0.038533 
3088.086707  	-0.038728 
3089.518365  	-0.038919 
3090.950023  	-0.038870 
3092.381682  	-0.039114 
3093.813340  	-0.039695 
3095.244998  	-0.039605 
3096.676656  	-0.039234 
3098.108314  	-0.039288 
3099.539972  	-0.039327 
3100.971631  	-0.039364 
3102.403289  	-0.039606 
3103.834947  	-0.039804 
3105.266605  	-0.039919 
3106.698263  	-0.039957 
3108.129922  	-0.039903 
3109.561580  	-0.039849 
3110.993238  	-0.039812 
3112.424896  	-0.039753 
3113.856554  	-0.039673 
3115.288212  	-0.039694 
3116.719871  	-0.039836 
3118.151529  	-0.040060 
3119.583187  	-0.040329 
3121.014845  	-0.040430 
3122.446503  	-0.040537 
3123.878162  	-0.040723 
3125.309820  	-0.040508 
3126.741478  	-0.040314 
3128.173136  	-0.040601 
3129.604794  	-0.040708 
3131.036453  	-0.040601 
3132.468111  	-0.040780 
3133.899769  	-0.041254 
3135.331427  	-0.041687 
3136.763085  	-0.041520 
3138.194743  	-0.041205 
3139.626402  	-0.041530 
3141.058060  	-0.041800 
3142.489718  	-0.041670 
3143.921376  	-0.041715 
3145.353034  	-0.041939 
3146.784693  	-0.042157 
3148.216351  	-0.042114 
3149.648009  	-0.041864 
3151.079667  	-0.041812 
3152.511325  	-0.041674 
3153.942983  	-0.041544 
3155.374642  	-0.041795 
3156.806300  	-0.041895 
3158.237958  	-0.041814 
3159.669616  	-0.041923 
3161.101274  	-0.042131 
3162.532933  	-0.042345 
3163.964591  	-0.042113 
3165.396249  	-0.041618 
3166.827907  	-0.041712 
3168.259565  	-0.041981 
3169.691224  	-0.041943 
3171.122882  	-0.041846 
3172.554540  	-0.041756 
3173.986198  	-0.042005 
3175.417856  	-0.042400 
3176.849514  	-0.042299 
3178.281173  	-0.042079 
3179.712831  	-0.042040 
3181.144489  	-0.042063 
3182.576147  	-0.042207 
3184.007805  	-0.042199 
3185.439464  	-0.042047 
3186.871122  	-0.041963 
3188.302780  	-0.041819 
3189.734438  	-0.041779 
3191.166096  	-0.041821 
3192.597755  	-0.041836 
3194.029413  	-0.042136 
3195.461071  	-0.042452 
3196.892729  	-0.042450 
3198.324387  	-0.042397 
3199.756045  	-0.042322 
3201.187704  	-0.042283 
3202.619362  	-0.042370 
3204.051020  	-0.042294 
3205.482678  	-0.042013 
3206.914336  	-0.041752 
3208.345995  	-0.041702 
3209.777653  	-0.041914 
3211.209311  	-0.042147 
3212.640969  	-0.042376 
3214.072627  	-0.042686 
3215.504285  	-0.042799 
3216.935944  	-0.042675 
3218.367602  	-0.042494 
3219.799260  	-0.042211 
3221.230918  	-0.042030 
3222.662576  	-0.042268 
3224.094235  	-0.042626 
3225.525893  	-0.042603 
3226.957551  	-0.042359 
3228.389209  	-0.042354 
3229.820867  	-0.042488 
3231.252526  	-0.042464 
3232.684184  	-0.042519 
3234.115842  	-0.042876 
3235.547500  	-0.043096 
3236.979158  	-0.042847 
3238.410816  	-0.042499 
3239.842475  	-0.042386 
3241.274133  	-0.042512 
3242.705791  	-0.042772 
3244.137449  	-0.042847 
3245.569107  	-0.042646 
3247.000766  	-0.042385 
3248.432424  	-0.042209 
3249.864082  	-0.042400 
3251.295740  	-0.042802 
3252.727398  	-0.042835 
3254.159057  	-0.042666 
3255.590715  	-0.042533 
3257.022373  	-0.042294 
3258.454031  	-0.042255 
3259.885689  	-0.042513 
3261.317347  	-0.042697 
3262.749006  	-0.042620 
3264.180664  	-0.042320 
3265.612322  	-0.042252 
3267.043980  	-0.042635 
3268.475638  	-0.042889 
3269.907297  	-0.042665 
3271.338955  	-0.042269 
3272.770613  	-0.042256 
3274.202271  	-0.042611 
3275.633929  	-0.042558 
3277.065587  	-0.042159 
3278.497246  	-0.042026 
3279.928904  	-0.041977 
3281.360562  	-0.042041 
3282.792220  	-0.042315 
3284.223878  	-0.042318 
3285.655537  	-0.042037 
3287.087195  	-0.041713 
3288.518853  	-0.041465 
3289.950511  	-0.041595 
3291.382169  	-0.041848 
3292.813828  	-0.041843 
3294.245486  	-0.041754 
3295.677144  	-0.041574 
3297.108802  	-0.041415 
3298.540460  	-0.041701 
3299.972118  	-0.042011 
3301.403777  	-0.041689 
3302.835435  	-0.041299 
3304.267093  	-0.041525 
3305.698751  	-0.041943 
3307.130409  	-0.042236 
3308.562068  	-0.042514 
3309.993726  	-0.042589 
3311.425384  	-0.042587 
3312.857042  	-0.042667 
3314.288700  	-0.042580 
3315.720359  	-0.042566 
3317.152017  	-0.042742 
3318.583675  	-0.042786 
3320.015333  	-0.042795 
3321.446991  	-0.042762 
3322.878649  	-0.042749 
3324.310308  	-0.043129 
3325.741966  	-0.043421 
3327.173624  	-0.043170 
3328.605282  	-0.043028 
3330.036940  	-0.043335 
3331.468599  	-0.043434 
3332.900257  	-0.043021 
3334.331915  	-0.042911 
3335.763573  	-0.043302 
3337.195231  	-0.043261 
3338.626889  	-0.043004 
3340.058548  	-0.043213 
3341.490206  	-0.043420 
3342.921864  	-0.043367 
3344.353522  	-0.043176 
3345.785180  	-0.043040 
3347.216839  	-0.043284 
3348.648497  	-0.043377 
3350.080155  	-0.043063 
3351.511813  	-0.043052 
3352.943471  	-0.043334 
3354.375130  	-0.043556 
3355.806788  	-0.043617 
3357.238446  	-0.043358 
3358.670104  	-0.043108 
3360.101762  	-0.043206 
3361.533420  	-0.043474 
3362.965079  	-0.043523 
3364.396737  	-0.043333 
3365.828395  	-0.043455 
3367.260053  	-0.043600 
3368.691711  	-0.043302 
3370.123370  	-0.043281 
3371.555028  	-0.043456 
3372.986686  	-0.043353 
3374.418344  	-0.043362 
3375.850002  	-0.043238 
3377.281660  	-0.043080 
3378.713319  	-0.043364 
3380.144977  	-0.043486 
3381.576635  	-0.043469 
3383.008293  	-0.043579 
3384.439951  	-0.043560 
3385.871610  	-0.043833 
3387.303268  	-0.044075 
3388.734926  	-0.043851 
3390.166584  	-0.043782 
3391.598242  	-0.043598 
3393.029901  	-0.043280 
3394.461559  	-0.043413 
3395.893217  	-0.043478 
3397.324875  	-0.043533 
3398.756533  	-0.043635 
3400.188191  	-0.043240 
3401.619850  	-0.043215 
3403.051508  	-0.043672 
3404.483166  	-0.043478 
3405.914824  	-0.043133 
3407.346482  	-0.043247 
3408.778141  	-0.043408 
3410.209799  	-0.043572 
3411.641457  	-0.043713 
3413.073115  	-0.043688 
3414.504773  	-0.043741 
3415.936432  	-0.044081 
3417.368090  	-0.044266 
3418.799748  	-0.043889 
3420.231406  	-0.043551 
3421.663064  	-0.043544 
3423.094722  	-0.043424 
3424.526381  	-0.043368 
3425.958039  	-0.043377 
3427.389697  	-0.043246 
3428.821355  	-0.043180 
3430.253013  	-0.043089 
3431.684672  	-0.043147 
3433.116330  	-0.043405 
3434.547988  	-0.043317 
3435.979646  	-0.043267 
3437.411304  	-0.043487 
3438.842962  	-0.043442 
3440.274621  	-0.043344 
3441.706279  	-0.043278 
3443.137937  	-0.043196 
3444.569595  	-0.043413 
3446.001253  	-0.043577 
3447.432912  	-0.043547 
3448.864570  	-0.043528 
3450.296228  	-0.043461 
3451.727886  	-0.043598 
3453.159544  	-0.043640 
3454.591203  	-0.043371 
3456.022861  	-0.043435 
3457.454519  	-0.043406 
3458.886177  	-0.043006 
3460.317835  	-0.043053 
3461.749493  	-0.043157 
3463.181152  	-0.042937 
3464.612810  	-0.043137 
3466.044468  	-0.043594 
3467.476126  	-0.043679 
3468.907784  	-0.043358 
3470.339443  	-0.042994 
3471.771101  	-0.042960 
3473.202759  	-0.043084 
3474.634417  	-0.043099 
3476.066075  	-0.043123 
3477.497734  	-0.043092 
3478.929392  	-0.042857 
3480.361050  	-0.042553 
3481.792708  	-0.042398 
3483.224366  	-0.042396 
3484.656024  	-0.042506 
3486.087683  	-0.042850 
3487.519341  	-0.043233 
3488.950999  	-0.043259 
3490.382657  	-0.043092 
3491.814315  	-0.043081 
3493.245974  	-0.043244 
3494.677632  	-0.043325 
3496.109290  	-0.043282 
3497.540948  	-0.043323 
3498.972606  	-0.043136 
3500.404264  	-0.042772 
3501.835923  	-0.042789 
3503.267581  	-0.042716 
3504.699239  	-0.042295 
3506.130897  	-0.042372 
3507.562555  	-0.042717 
3508.994214  	-0.042697 
3510.425872  	-0.042403 
3511.857530  	-0.042236 
3513.289188  	-0.042390 
3514.720846  	-0.042473 
3516.152505  	-0.042384 
3517.584163  	-0.042624 
3519.015821  	-0.042839 
3520.447479  	-0.042519 
3521.879137  	-0.042072 
3523.310795  	-0.041851 
3524.742454  	-0.041862 
3526.174112  	-0.041789 
3527.605770  	-0.041591 
3529.037428  	-0.041698 
3530.469086  	-0.042021 
3531.900745  	-0.042366 
3533.332403  	-0.042568 
3534.764061  	-0.042383 
3536.195719  	-0.042277 
3537.627377  	-0.042317 
3539.059035  	-0.042155 
3540.490694  	-0.042335 
3541.922352  	-0.042641 
3543.354010  	-0.042344 
3544.785668  	-0.042039 
3546.217326  	-0.042260 
3547.648985  	-0.042630 
3549.080643  	-0.042802 
3550.512301  	-0.042629 
3551.943959  	-0.042328 
3553.375617  	-0.042291 
3554.807276  	-0.042608 
3556.238934  	-0.042940 
3557.670592  	-0.042916 
3559.102250  	-0.042920 
3560.533908  	-0.043286 
3561.965566  	-0.043426 
3563.397225  	-0.043065 
3564.828883  	-0.042317 
3566.260541  	-0.041585 
3567.692199  	-0.041944 
3569.123857  	-0.042721 
3570.555516  	-0.042882 
3571.987174  	-0.043190 
3573.418832  	-0.043430 
3574.850490  	-0.043016 
3576.282148  	-0.042550 
3577.713807  	-0.042891 
3579.145465  	-0.043686 
3580.577123  	-0.043723 
3582.008781  	-0.043302 
3583.440439  	-0.043497 
3584.872097  	-0.043357 
3586.303756  	-0.042334 
3587.735414  	-0.042305 
3589.167072  	-0.043723 
3590.598730  	-0.044068 
3592.030388  	-0.043545 
3593.462047  	-0.043007 
3594.893705  	-0.042846 
3596.325363  	-0.043161 
3597.757021  	-0.043344 
3599.188679  	-0.043193 
3600.620337  	-0.043415 
3602.051996  	-0.043849 
3603.483654  	-0.043831 
3604.915312  	-0.043969 
3606.346970  	-0.044002 
3607.778628  	-0.043318 
3609.210287  	-0.043559 
3610.641945  	-0.044427 
3612.073603  	-0.043801 
3613.505261  	-0.043072 
3614.936919  	-0.043453 
3616.368578  	-0.043223 
3617.800236  	-0.042363 
3619.231894  	-0.042475 
3620.663552  	-0.043798 
3622.095210  	-0.044189 
3623.526868  	-0.043758 
3624.958527  	-0.043764 
3626.390185  	-0.043419 
3627.821843  	-0.041950 
3629.253501  	-0.041524 
3630.685159  	-0.043303 
3632.116818  	-0.043528 
3633.548476  	-0.043497 
3634.980134  	-0.043786 
3636.411792  	-0.043978 
3637.843450  	-0.044362 
3639.275109  	-0.044588 
3640.706767  	-0.044151 
3642.138425  	-0.043616 
3643.570083  	-0.043638 
3645.001741  	-0.043818 
3646.433399  	-0.043354 
3647.865058  	-0.042423 
3649.296716  	-0.041790 
3650.728374  	-0.042086 
3652.160032  	-0.043837 
3653.591690  	-0.044383 
3655.023349  	-0.043713 
3656.455007  	-0.043649 
3657.886665  	-0.044282 
3659.318323  	-0.044185 
3660.749981  	-0.043968 
3662.181639  	-0.043790 
3663.613298  	-0.043757 
3665.044956  	-0.043918 
3666.476614  	-0.043757 
3667.908272  	-0.043363 
3669.339930  	-0.042777 
3670.771589  	-0.042342 
3672.203247  	-0.042728 
3673.634905  	-0.042458 
3675.066563  	-0.041930 
3676.498221  	-0.043203 
3677.929880  	-0.043808 
3679.361538  	-0.043973 
3680.793196  	-0.044433 
3682.224854  	-0.044168 
3683.656512  	-0.043994 
3685.088170  	-0.043790 
3686.519829  	-0.042891 
3687.951487  	-0.042832 
3689.383145  	-0.043781 
3690.814803  	-0.043452 
3692.246461  	-0.043791 
3693.678120  	-0.044553 
3695.109778  	-0.044058 
3696.541436  	-0.043670 
3697.973094  	-0.044016 
3699.404752  	-0.043840 
3700.836411  	-0.043616 
3702.268069  	-0.044147 
3703.699727  	-0.044320 
3705.131385  	-0.044045 
3706.563043  	-0.043923 
3707.994701  	-0.043690 
3709.426360  	-0.043418 
3710.858018  	-0.043244 
3712.289676  	-0.043362 
3713.721334  	-0.044536 
3715.152992  	-0.045315 
3716.584651  	-0.044985 
3718.016309  	-0.044708 
3719.447967  	-0.044694 
3720.879625  	-0.044139 
3722.311283  	-0.043640 
3723.742941  	-0.043797 
3725.174600  	-0.043741 
3726.606258  	-0.043360 
3728.037916  	-0.043588 
3729.469574  	-0.044004 
3730.901232  	-0.043953 
3732.332891  	-0.043811 
3733.764549  	-0.043057 
3735.196207  	-0.041640 
3736.627865  	-0.042761 
3738.059523  	-0.044714 
3739.491182  	-0.044569 
3740.922840  	-0.044781 
3742.354498  	-0.044650 
3743.786156  	-0.043328 
3745.217814  	-0.044650 
3746.649472  	-0.045643 
3748.081131  	-0.043844 
3749.512789  	-0.043258 
3750.944447  	-0.044253 
3752.376105  	-0.044321 
3753.807763  	-0.045136 
3755.239422  	-0.045496 
3756.671080  	-0.045377 
3758.102738  	-0.045490 
3759.534396  	-0.045056 
3760.966054  	-0.045181 
3762.397712  	-0.045897 
3763.829371  	-0.045563 
3765.261029  	-0.045184 
3766.692687  	-0.045344 
3768.124345  	-0.044972 
3769.556003  	-0.044660 
3770.987662  	-0.045148 
3772.419320  	-0.045800 
3773.850978  	-0.046222 
3775.282636  	-0.046305 
3776.714294  	-0.046039 
3778.145953  	-0.045449 
3779.577611  	-0.044912 
3781.009269  	-0.045159 
3782.440927  	-0.045148 
3783.872585  	-0.044615 
3785.304243  	-0.044690 
3786.735902  	-0.045286 
3788.167560  	-0.045499 
3789.599218  	-0.045259 
3791.030876  	-0.045080 
3792.462534  	-0.045526 
3793.894193  	-0.045721 
3795.325851  	-0.045066 
3796.757509  	-0.044616 
3798.189167  	-0.044557 
3799.620825  	-0.044028 
3801.052484  	-0.043643 
3802.484142  	-0.044529 
3803.915800  	-0.045073 
3805.347458  	-0.044574 
3806.779116  	-0.044442 
3808.210774  	-0.045805 
3809.642433  	-0.046133 
3811.074091  	-0.045455 
3812.505749  	-0.045229 
3813.937407  	-0.045002 
3815.369065  	-0.044310 
3816.800724  	-0.044714 
3818.232382  	-0.044987 
3819.664040  	-0.043870 
3821.095698  	-0.043802 
3822.527356  	-0.045947 
3823.959014  	-0.045810 
3825.390673  	-0.045065 
3826.822331  	-0.045388 
3828.253989  	-0.045664 
3829.685647  	-0.045018 
3831.117305  	-0.044641 
3832.548964  	-0.045072 
3833.980622  	-0.045238 
3835.412280  	-0.044829 
3836.843938  	-0.044533 
3838.275596  	-0.044442 
3839.707255  	-0.044462 
3841.138913  	-0.044792 
3842.570571  	-0.045038 
3844.002229  	-0.045244 
3845.433887  	-0.045638 
3846.865545  	-0.045550 
3848.297204  	-0.045153 
3849.728862  	-0.045037 
3851.160520  	-0.044448 
3852.592178  	-0.043135 
3854.023836  	-0.043455 
3855.455495  	-0.044873 
3856.887153  	-0.045033 
3858.318811  	-0.045504 
3859.750469  	-0.045589 
3861.182127  	-0.045155 
3862.613786  	-0.044802 
3864.045444  	-0.044121 
3865.477102  	-0.044244 
3866.908760  	-0.045335 
3868.340418  	-0.044680 
3869.772076  	-0.043426 
3871.203735  	-0.044541 
3872.635393  	-0.045088 
3874.067051  	-0.044711 
3875.498709  	-0.045039 
3876.930367  	-0.045162 
3878.362026  	-0.044915 
3879.793684  	-0.044784 
3881.225342  	-0.044821 
3882.657000  	-0.044948 
3884.088658  	-0.044357 
3885.520316  	-0.043515 
3886.951975  	-0.044476 
3888.383633  	-0.045294 
3889.815291  	-0.044888 
3891.246949  	-0.044690 
3892.678607  	-0.045186 
3894.110266  	-0.045601 
3895.541924  	-0.045589 
3896.973582  	-0.044854 
3898.405240  	-0.044059 
3899.836898  	-0.044087 
3901.268557  	-0.044241 
3902.700215  	-0.043984 
3904.131873  	-0.044281 
3905.563531  	-0.045229 
3906.995189  	-0.045726 
3908.426847  	-0.045845 
3909.858506  	-0.045864 
3911.290164  	-0.045832 
3912.721822  	-0.045979 
3914.153480  	-0.045782 
3915.585138  	-0.044878 
3917.016797  	-0.044373 
3918.448455  	-0.044705 
3919.880113  	-0.044793 
3921.311771  	-0.044919 
3922.743429  	-0.045096 
3924.175088  	-0.045026 
3925.606746  	-0.045315 
3927.038404  	-0.045584 
3928.470062  	-0.045464 
3929.901720  	-0.045479 
3931.333378  	-0.045438 
3932.765037  	-0.045327 
3934.196695  	-0.045466 
3935.628353  	-0.045500 
3937.060011  	-0.045512 
3938.491669  	-0.045510 
3939.923328  	-0.045201 
3941.354986  	-0.044892 
3942.786644  	-0.044914 
3944.218302  	-0.045284 
3945.649960  	-0.045496 
3947.081618  	-0.045324 
3948.513277  	-0.045311 
3949.944935  	-0.045468 
3951.376593  	-0.045466 
3952.808251  	-0.045592 
3954.239909  	-0.045584 
3955.671568  	-0.045425 
3957.103226  	-0.045545 
3958.534884  	-0.045549 
3959.966542  	-0.045430 
3961.398200  	-0.045501 
3962.829859  	-0.045461 
3964.261517  	-0.045444 
3965.693175  	-0.045530 
3967.124833  	-0.045509 
3968.556491  	-0.045500 
3969.988149  	-0.045397 
3971.419808  	-0.045344 
3972.851466  	-0.045486 
3974.283124  	-0.045372 
3975.714782  	-0.045130 
3977.146440  	-0.045015 
3978.578099  	-0.045104 
3980.009757  	-0.045588 
3981.441415  	-0.045631 
3982.873073  	-0.045032 
3984.304731  	-0.045103 
3985.736389  	-0.045655 
3987.168048  	-0.045625 
3988.599706  	-0.045234 
3990.031364  	-0.045143 
3991.463022  	-0.045395 
3992.894680  	-0.045437 
3994.326339  	-0.045366 
3995.757997  	-0.045670 
3997.189655  	-0.045799 
3998.621313  	-0.045559 
4000.052971  	-0.045461 