##TITLE=No Description
##DATA TYPE=INFRARED SPECTRUM
##XUNITS=1/CM
##YUNITS=%T
399.432634  	42.606686 
400.864292  	36.743160 
402.295950  	35.788695 
403.727608  	37.216285 
405.159267  	40.270628 
406.590925  	43.333851 
408.022583  	41.716734 
409.454241  	38.930713 
410.885899  	37.803296 
412.317558  	39.311163 
413.749216  	43.464002 
415.180874  	42.360508 
416.612532  	38.860332 
418.044190  	38.538105 
419.475848  	41.492379 
420.907507  	44.548928 
422.339165  	44.632397 
423.770823  	42.204387 
425.202481  	41.976500 
426.634139  	43.119642 
428.065798  	44.102578 
429.497456  	45.416854 
430.929114  	46.642972 
432.360772  	48.018957 
433.792430  	48.790577 
435.224089  	49.996432 
436.655747  	52.423100 
438.087405  	52.355647 
439.519063  	51.105710 
440.950721  	51.902951 
442.382379  	52.023318 
443.814038  	51.996609 
445.245696  	54.689243 
446.677354  	55.555537 
448.109012  	52.908555 
449.540670  	51.957203 
450.972329  	52.735182 
452.403987  	52.937355 
453.835645  	53.296947 
455.267303  	53.585940 
456.698961  	52.520723 
458.130619  	52.071762 
459.562278  	53.233454 
460.993936  	53.586791 
462.425594  	53.356886 
463.857252  	52.398112 
465.288910  	50.740968 
466.720569  	50.668719 
468.152227  	51.595420 
469.583885  	51.083413 
471.015543  	50.529292 
472.447201  	50.221128 
473.878860  	49.270314 
475.310518  	49.068058 
476.742176  	49.215810 
478.173834  	48.753859 
479.605492  	48.272703 
481.037150  	47.841458 
482.468809  	47.144845 
483.900467  	46.632169 
485.332125  	46.228065 
486.763783  	45.381854 
488.195441  	44.911445 
489.627100  	45.462748 
491.058758  	45.392147 
492.490416  	44.185599 
493.922074  	43.507068 
495.353732  	43.137631 
496.785391  	42.551415 
498.217049  	42.372026 
499.648707  	42.319721 
501.080365  	42.014239 
502.512023  	41.443602 
503.943681  	40.919947 
505.375340  	40.942644 
506.806998  	40.674790 
508.238656  	39.808677 
509.670314  	39.194583 
511.101972  	38.548807 
512.533631  	38.321328 
513.965289  	38.644995 
515.396947  	38.274721 
516.828605  	37.878616 
518.260263  	37.820107 
519.691921  	37.018354 
521.123580  	36.695176 
522.555238  	37.029554 
523.986896  	36.696442 
525.418554  	36.373011 
526.850212  	36.505045 
528.281871  	36.298887 
529.713529  	36.046822 
531.145187  	35.906716 
532.576845  	35.779570 
534.008503  	35.790236 
535.440162  	35.726335 
536.871820  	35.556687 
538.303478  	35.477031 
539.735136  	35.594890 
541.166794  	35.844564 
542.598452  	35.813840 
544.030111  	35.659606 
545.461769  	35.754409 
546.893427  	35.822620 
548.325085  	35.894751 
549.756743  	36.243958 
551.188402  	36.630012 
552.620060  	37.039762 
554.051718  	37.825032 
555.483376  	38.945966 
556.915034  	40.173491 
558.346692  	41.495714 
559.778351  	42.664662 
561.210009  	43.520431 
562.641667  	44.638995 
564.073325  	46.248190 
565.504983  	47.872194 
566.936642  	49.218058 
568.368300  	49.891638 
569.799958  	49.933220 
571.231616  	49.733275 
572.663274  	49.016584 
574.094933  	48.223413 
575.526591  	48.188007 
576.958249  	48.333093 
578.389907  	48.278219 
579.821565  	48.510324 
581.253223  	48.685304 
582.684882  	48.611701 
584.116540  	48.633085 
585.548198  	48.606695 
586.979856  	48.618929 
588.411514  	48.712437 
589.843173  	48.632089 
591.274831  	48.638873 
592.706489  	48.748382 
594.138147  	48.642400 
595.569805  	48.565779 
597.001464  	48.589167 
598.433122  	48.551301 
599.864780  	48.588274 
601.296438  	48.676374 
602.728096  	48.635882 
604.159754  	48.565750 
605.591413  	48.623072 
607.023071  	48.687269 
608.454729  	48.599370 
609.886387  	48.528956 
611.318045  	48.644143 
612.749704  	48.843668 
614.181362  	48.954779 
615.613020  	48.940064 
617.044678  	49.069353 
618.476336  	49.310505 
619.907994  	49.214267 
621.339653  	49.053984 
622.771311  	49.243107 
624.202969  	49.442776 
625.634627  	49.486707 
627.066285  	49.461809 
628.497944  	49.394131 
629.929602  	49.513881 
631.361260  	49.771646 
632.792918  	49.969955 
634.224576  	50.181574 
635.656235  	50.415278 
637.087893  	50.658040 
638.519551  	50.828294 
639.951209  	50.909626 
641.382867  	51.150457 
642.814525  	51.379377 
644.246184  	51.422429 
645.677842  	51.607144 
647.109500  	51.827583 
648.541158  	51.939779 
649.972816  	52.196903 
651.404475  	52.469780 
652.836133  	52.687662 
654.267791  	53.041715 
655.699449  	53.457682 
657.131107  	53.836507 
658.562766  	54.147903 
659.994424  	54.399094 
661.426082  	54.733450 
662.857740  	55.209421 
664.289398  	55.638803 
665.721056  	55.738931 
667.152715  	55.567675 
668.584373  	56.133942 
670.016031  	57.138728 
671.447689  	57.574676 
672.879347  	57.839216 
674.311006  	58.150081 
675.742664  	58.570901 
677.174322  	59.010666 
678.605980  	59.435742 
680.037638  	59.998302 
681.469296  	60.474866 
682.900955  	60.719895 
684.332613  	61.038558 
685.764271  	61.376965 
687.195929  	61.662543 
688.627587  	62.104289 
690.059246  	62.675697 
691.490904  	63.293654 
692.922562  	63.815124 
694.354220  	64.135895 
695.785878  	64.493334 
697.217537  	64.871299 
698.649195  	65.137340 
700.080853  	65.406059 
701.512511  	65.620902 
702.944169  	65.805482 
704.375827  	66.142533 
705.807486  	66.584061 
707.239144  	67.062686 
708.670802  	67.518925 
710.102460  	68.018753 
711.534118  	68.792447 
712.965777  	69.621057 
714.397435  	70.230204 
715.829093  	70.797140 
717.260751  	71.435568 
718.692409  	72.122101 
720.124067  	72.685453 
721.555726  	72.970462 
722.987384  	73.246135 
724.419042  	73.611604 
725.850700  	73.954397 
727.282358  	74.416362 
728.714017  	74.960310 
730.145675  	75.465031 
731.577333  	76.032285 
733.008991  	76.620838 
734.440649  	77.237533 
735.872308  	77.929824 
737.303966  	78.469714 
738.735624  	78.864113 
740.167282  	79.290940 
741.598940  	79.625059 
743.030598  	79.844019 
744.462257  	80.017735 
745.893915  	80.041256 
747.325573  	79.952221 
748.757231  	79.778293 
750.188889  	79.452922 
751.620548  	79.118480 
753.052206  	78.807001 
754.483864  	78.445238 
755.915522  	78.080377 
757.347180  	77.659034 
758.778839  	77.296931 
760.210497  	77.200724 
761.642155  	77.171340 
763.073813  	77.068600 
764.505471  	76.981282 
765.937129  	76.828760 
767.368788  	76.717580 
768.800446  	76.953916 
770.232104  	77.597068 
771.663762  	78.656800 
773.095420  	80.044175 
774.527079  	81.420619 
775.958737  	82.734497 
777.390395  	84.030345 
778.822053  	85.074110 
780.253711  	85.840947 
781.685369  	86.467371 
783.117028  	87.020016 
784.548686  	87.551259 
785.980344  	87.955155 
787.412002  	88.198150 
788.843660  	88.394200 
790.275319  	88.494641 
791.706977  	88.520438 
793.138635  	88.538236 
794.570293  	88.326188 
796.001951  	87.852029 
797.433610  	87.328205 
798.865268  	86.584733 
800.296926  	85.456525 
801.728584  	84.079489 
803.160242  	82.395609 
804.591900  	80.490407 
806.023559  	78.628618 
807.455217  	76.742966 
808.886875  	74.846025 
810.318533  	73.097210 
811.750191  	71.651160 
813.181850  	70.729207 
814.613508  	70.323815 
816.045166  	70.392507 
817.476824  	70.756157 
818.908482  	70.915364 
820.340141  	70.678112 
821.771799  	70.013676 
823.203457  	68.721701 
824.635115  	66.954722 
826.066773  	65.160119 
827.498431  	63.884003 
828.930090  	63.596995 
830.361748  	64.268792 
831.793406  	65.730680 
833.225064  	67.828399 
834.656722  	70.253832 
836.088381  	72.730085 
837.520039  	75.033209 
838.951697  	76.945356 
840.383355  	78.507025 
841.815013  	79.851007 
843.246671  	80.977495 
844.678330  	82.104069 
846.109988  	83.368147 
847.541646  	84.625157 
848.973304  	86.021208 
850.404962  	87.622981 
851.836621  	89.153722 
853.268279  	90.571209 
854.699937  	91.841138 
856.131595  	92.890830 
857.563253  	93.785982 
858.994912  	94.395343 
860.426570  	94.739391 
861.858228  	95.019690 
863.289886  	95.152787 
864.721544  	95.085900 
866.153202  	94.878641 
867.584861  	94.527417 
869.016519  	94.078742 
870.448177  	93.500890 
871.879835  	92.695933 
873.311493  	91.733647 
874.743152  	90.768703 
876.174810  	89.770918 
877.606468  	88.564934 
879.038126  	87.214201 
880.469784  	85.933200 
881.901443  	84.661750 
883.333101  	83.356683 
884.764759  	82.356169 
886.196417  	81.871520 
887.628075  	81.870866 
889.059733  	82.604024 
890.491392  	84.276978 
891.923050  	86.655650 
893.354708  	89.259803 
894.786366  	91.594278 
896.218024  	93.388879 
897.649683  	94.517466 
899.081341  	95.048277 
900.512999  	95.246897 
901.944657  	95.295034 
903.376315  	95.284436 
904.807973  	95.216221 
906.239632  	94.989366 
907.671290  	94.666522 
909.102948  	94.371904 
910.534606  	94.051650 
911.966264  	93.674277 
913.397923  	93.228808 
914.829581  	92.699162 
916.261239  	92.271150 
917.692897  	92.039843 
919.124555  	91.922295 
920.556214  	91.976231 
921.987872  	92.175623 
923.419530  	92.419235 
924.851188  	92.688005 
926.282846  	92.774228 
927.714504  	92.553325 
929.146163  	92.191965 
930.577821  	91.725939 
932.009479  	91.186221 
933.441137  	90.732044 
934.872795  	90.422182 
936.304454  	90.279290 
937.736112  	90.183783 
939.167770  	89.977174 
940.599428  	89.761557 
942.031086  	89.603210 
943.462744  	89.468448 
944.894403  	89.439339 
946.326061  	89.526907 
947.757719  	89.645852 
949.189377  	89.727438 
950.621035  	89.705610 
952.052694  	89.556342 
953.484352  	89.265665 
954.916010  	88.872933 
956.347668  	88.468906 
957.779326  	88.064980 
959.210985  	87.747177 
960.642643  	87.610468 
962.074301  	87.540509 
963.505959  	87.455953 
964.937617  	87.394158 
966.369275  	87.324624 
967.800934  	87.189012 
969.232592  	86.996345 
970.664250  	86.793704 
972.095908  	86.544966 
973.527566  	86.174403 
974.959225  	85.749421 
976.390883  	85.331346 
977.822541  	84.852646 
979.254199  	84.285641 
980.685857  	83.659442 
982.117516  	82.974556 
983.549174  	82.189144 
984.980832  	81.275481 
986.412490  	80.228402 
987.844148  	79.031737 
989.275806  	77.775322 
990.707465  	76.558053 
992.139123  	75.460117 
993.570781  	74.663720 
995.002439  	74.018837 
996.434097  	73.193211 
997.865756  	72.075411 
999.297414  	70.331988 
1000.729072  	67.775288 
1002.160730  	64.856431 
1003.592388  	62.165017 
1005.024046  	60.374281 
1006.455705  	59.660146 
1007.887363  	59.307474 
1009.319021  	58.427753 
1010.750679  	55.949185 
1012.182337  	51.906364 
1013.613996  	49.366401 
1015.045654  	51.964658 
1016.477312  	59.691031 
1017.908970  	68.983406 
1019.340628  	76.900676 
1020.772287  	82.664816 
1022.203945  	86.581478 
1023.635603  	89.402680 
1025.067261  	91.407652 
1026.498919  	92.443112 
1027.930577  	92.690216 
1029.362236  	92.568725 
1030.793894  	92.250154 
1032.225552  	91.757435 
1033.657210  	91.215717 
1035.088868  	90.667833 
1036.520527  	90.088996 
1037.952185  	89.523511 
1039.383843  	88.964013 
1040.815501  	88.422014 
1042.247159  	87.945797 
1043.678818  	87.433400 
1045.110476  	86.823637 
1046.542134  	86.254410 
1047.973792  	85.736701 
1049.405450  	85.191998 
1050.837108  	84.700678 
1052.268767  	84.191909 
1053.700425  	83.556499 
1055.132083  	82.975875 
1056.563741  	82.442710 
1057.995399  	81.826360 
1059.427058  	81.215634 
1060.858716  	80.533539 
1062.290374  	79.762127 
1063.722032  	79.008885 
1065.153690  	78.099672 
1066.585348  	77.028772 
1068.017007  	75.844810 
1069.448665  	74.351368 
1070.880323  	72.592768 
1072.311981  	70.532307 
1073.743639  	67.945416 
1075.175298  	64.630392 
1076.606956  	60.394136 
1078.038614  	56.415270 
1079.470272  	54.867565 
1080.901930  	56.614193 
1082.333589  	61.111764 
1083.765247  	66.760558 
1085.196905  	72.042092 
1086.628563  	76.072109 
1088.060221  	78.333273 
1089.491879  	78.986102 
1090.923538  	78.540139 
1092.355196  	77.397259 
1093.786854  	75.917769 
1095.218512  	74.198223 
1096.650170  	72.199011 
1098.081829  	70.178619 
1099.513487  	68.367388 
1100.945145  	67.194541 
1102.376803  	66.985287 
1103.808461  	67.272120 
1105.240120  	67.645391 
1106.671778  	67.797850 
1108.103436  	67.611956 
1109.535094  	67.604179 
1110.966752  	67.940109 
1112.398410  	68.403114 
1113.830069  	68.853776 
1115.261727  	68.998999 
1116.693385  	68.899809 
1118.125043  	68.703351 
1119.556701  	68.241268 
1120.988360  	67.591242 
1122.420018  	66.793608 
1123.851676  	65.824373 
1125.283334  	64.806431 
1126.714992  	63.607484 
1128.146650  	62.327123 
1129.578309  	61.129521 
1131.009967  	59.802436 
1132.441625  	58.424015 
1133.873283  	57.005688 
1135.304941  	55.497913 
1136.736600  	54.075399 
1138.168258  	52.504850 
1139.599916  	50.813009 
1141.031574  	49.179842 
1142.463232  	47.405013 
1143.894891  	45.740855 
1145.326549  	44.125673 
1146.758207  	42.321238 
1148.189865  	40.726346 
1149.621523  	39.156583 
1151.053181  	37.570071 
1152.484840  	36.267149 
1153.916498  	34.935775 
1155.348156  	33.899365 
1156.779814  	33.362707 
1158.211472  	33.134599 
1159.643131  	33.798850 
1161.074789  	35.292588 
1162.506447  	37.496686 
1163.938105  	40.724122 
1165.369763  	44.595552 
1166.801421  	49.068723 
1168.233080  	53.704741 
1169.664738  	57.311338 
1171.096396  	59.212606 
1172.528054  	58.801396 
1173.959712  	56.087375 
1175.391371  	52.378174 
1176.823029  	48.785885 
1178.254687  	45.833014 
1179.686345  	43.504093 
1181.118003  	41.141496 
1182.549662  	38.854046 
1183.981320  	36.932913 
1185.412978  	35.597244 
1186.844636  	35.421877 
1188.276294  	36.054345 
1189.707952  	37.245466 
1191.139611  	39.056529 
1192.571269  	40.977342 
1194.002927  	43.169368 
1195.434585  	45.721275 
1196.866243  	48.364570 
1198.297902  	51.306988 
1199.729560  	54.337096 
1201.161218  	57.331826 
1202.592876  	60.300743 
1204.024534  	62.649693 
1205.456193  	63.950812 
1206.887851  	63.712640 
1208.319509  	61.560845 
1209.751167  	58.169395 
1211.182825  	54.302832 
1212.614483  	50.607991 
1214.046142  	47.903164 
1215.477800  	46.048235 
1216.909458  	44.952919 
1218.341116  	44.648331 
1219.772774  	44.644379 
1221.204433  	45.061167 
1222.636091  	45.790756 
1224.067749  	46.578380 
1225.499407  	47.655048 
1226.931065  	48.699741 
1228.362723  	49.726070 
1229.794382  	50.946920 
1231.226040  	52.020690 
1232.657698  	53.153379 
1234.089356  	54.340521 
1235.521014  	55.332645 
1236.952673  	56.468122 
1238.384331  	57.588433 
1239.815989  	58.588987 
1241.247647  	59.713167 
1242.679305  	60.739394 
1244.110964  	61.828945 
1245.542622  	63.140874 
1246.974280  	64.476408 
1248.405938  	66.041300 
1249.837596  	67.795543 
1251.269254  	69.688323 
1252.700913  	71.913928 
1254.132571  	74.285789 
1255.564229  	76.827476 
1256.995887  	79.586399 
1258.427545  	82.318741 
1259.859204  	85.039991 
1261.290862  	87.710086 
1262.722520  	90.165145 
1264.154178  	92.362035 
1265.585836  	94.242658 
1267.017495  	95.783418 
1268.449153  	97.024097 
1269.880811  	98.014575 
1271.312469  	98.779526 
1272.744127  	99.330267 
1274.175785  	99.699008 
1275.607444  	99.918359 
1277.039102  	99.978540 
1278.470760  	99.846659 
1279.902418  	99.588457 
1281.334076  	99.268635 
1282.765735  	98.847760 
1284.197393  	98.347190 
1285.629051  	97.849743 
1287.060709  	97.402252 
1288.492367  	97.008730 
1289.924025  	96.713569 
1291.355684  	96.618428 
1292.787342  	96.754634 
1294.219000  	97.137138 
1295.650658  	97.780914 
1297.082316  	98.580573 
1298.513975  	99.397696 
1299.945633  	100.202602 
1301.377291  	100.906158 
1302.808949  	101.423316 
1304.240607  	101.766423 
1305.672266  	101.819303 
1307.103924  	101.628124 
1308.535582  	101.404594 
1309.967240  	101.307868 
1311.398898  	101.586556 
1312.830556  	102.285406 
1314.262215  	103.123187 
1315.693873  	103.896319 
1317.125531  	104.438365 
1318.557189  	104.737667 
1319.988847  	104.998038 
1321.420506  	105.122760 
1322.852164  	105.141766 
1324.283822  	105.185894 
1325.715480  	105.170103 
1327.147138  	105.195812 
1328.578796  	105.246575 
1330.010455  	105.195140 
1331.442113  	105.184915 
1332.873771  	105.193191 
1334.305429  	105.156968 
1335.737087  	105.123408 
1337.168746  	105.037415 
1338.600404  	104.982833 
1340.032062  	104.982846 
1341.463720  	104.970632 
1342.895378  	104.992448 
1344.327037  	104.958206 
1345.758695  	104.910069 
1347.190353  	104.873138 
1348.622011  	104.716433 
1350.053669  	104.640296 
1351.485327  	104.623475 
1352.916986  	104.465325 
1354.348644  	104.312739 
1355.780302  	104.061384 
1357.211960  	103.648125 
1358.643618  	102.990409 
1360.075277  	101.621013 
1361.506935  	99.624848 
1362.938593  	97.546642 
1364.370251  	96.641425 
1365.801909  	97.385280 
1367.233568  	99.117989 
1368.665226  	101.044294 
1370.096884  	102.492059 
1371.528542  	103.239426 
1372.960200  	103.479543 
1374.391858  	103.740557 
1375.823517  	103.858335 
1377.255175  	103.691281 
1378.686833  	103.510969 
1380.118491  	103.173525 
1381.550149  	102.584060 
1382.981808  	101.660261 
1384.413466  	100.557231 
1385.845124  	99.739758 
1387.276782  	99.720502 
1388.708440  	100.477292 
1390.140098  	101.274580 
1391.571757  	102.006530 
1393.003415  	102.435907 
1394.435073  	102.593799 
1395.866731  	102.659765 
1397.298389  	102.437453 
1398.730048  	102.027159 
1400.161706  	101.610362 
1401.593364  	100.936461 
1403.025022  	99.985559 
1404.456680  	98.994422 
1405.888339  	97.885281 
1407.319997  	96.847296 
1408.751655  	96.357137 
1410.183313  	96.396201 
1411.614971  	97.102549 
1413.046629  	98.334239 
1414.478288  	99.600658 
1415.909946  	100.872558 
1417.341604  	101.848882 
1418.773262  	102.513565 
1420.204920  	103.247414 
1421.636579  	103.437434 
1423.068237  	103.419090 
1424.499895  	103.635598 
1425.931553  	103.665172 
1427.363211  	103.561261 
1428.794870  	103.556932 
1430.226528  	103.473759 
1431.658186  	103.447837 
1433.089844  	103.367512 
1434.521502  	103.126777 
1435.953160  	103.014109 
1437.384819  	102.906198 
1438.816477  	102.615291 
1440.248135  	102.236407 
1441.679793  	101.746045 
1443.111451  	101.416832 
1444.543110  	101.093777 
1445.974768  	100.673813 
1447.406426  	100.397241 
1448.838084  	100.084803 
1450.269742  	99.788245 
1451.701400  	99.689852 
1453.133059  	99.626584 
1454.564717  	99.468442 
1455.996375  	99.124831 
1457.428033  	98.530805 
1458.859691  	98.004724 
1460.291350  	97.219719 
1461.723008  	96.483915 
1463.154666  	95.968863 
1464.586324  	95.734006 
1466.017982  	96.096952 
1467.449641  	96.335371 
1468.881299  	96.532521 
1470.312957  	96.790377 
1471.744615  	96.787503 
1473.176273  	97.054983 
1474.607931  	97.243907 
1476.039590  	96.954558 
1477.471248  	96.896981 
1478.902906  	96.642384 
1480.334564  	95.996782 
1481.766222  	95.479102 
1483.197881  	94.680676 
1484.629539  	93.531960 
1486.061197  	92.370217 
1487.492855  	90.696603 
1488.924513  	88.862141 
1490.356172  	87.000795 
1491.787830  	84.337493 
1493.219488  	82.036537 
1494.651146  	79.779081 
1496.082804  	76.810853 
1497.514462  	74.167864 
1498.946121  	71.752795 
1500.377779  	69.619061 
1501.809437  	68.789462 
1503.241095  	68.462609 
1504.672753  	68.714638 
1506.104412  	70.810272 
1507.536070  	75.400315 
1508.967728  	79.735219 
1510.399386  	83.831476 
1511.831044  	88.023720 
1513.262702  	92.096831 
1514.694361  	95.097970 
1516.126019  	97.226023 
1517.557677  	99.603182 
1518.989335  	100.992123 
1520.420993  	101.453932 
1521.852652  	102.671958 
1523.284310  	103.370548 
1524.715968  	103.338813 
1526.147626  	103.797455 
1527.579284  	104.141869 
1529.010943  	104.247144 
1530.442601  	104.460992 
1531.874259  	104.360579 
1533.305917  	104.369302 
1534.737575  	104.772729 
1536.169233  	104.710579 
1537.600892  	104.622415 
1539.032550  	104.621333 
1540.464208  	104.727211 
1541.895866  	105.090155 
1543.327524  	104.998089 
1544.759183  	104.973739 
1546.190841  	105.232216 
1547.622499  	105.110558 
1549.054157  	104.972685 
1550.485815  	105.116262 
1551.917473  	105.075219 
1553.349132  	104.982768 
1554.780790  	105.063618 
1556.212448  	105.002809 
1557.644106  	104.715867 
1559.075764  	104.682561 
1560.507423  	105.372423 
1561.939081  	105.208938 
1563.370739  	104.982613 
1564.802397  	105.021064 
1566.234055  	105.026371 
1567.665714  	104.814440 
1569.097372  	104.739766 
1570.529030  	104.881831 
1571.960688  	104.865297 
1573.392346  	104.684035 
1574.824004  	104.436034 
1576.255663  	104.384958 
1577.687321  	104.415318 
1579.118979  	104.211590 
1580.550637  	104.003336 
1581.982295  	103.778636 
1583.413954  	103.429954 
1584.845612  	102.984498 
1586.277270  	102.474984 
1587.708928  	101.890565 
1589.140586  	101.278677 
1590.572245  	100.804398 
1592.003903  	100.469158 
1593.435561  	100.328075 
1594.867219  	100.404063 
1596.298877  	100.536591 
1597.730535  	100.641751 
1599.162194  	100.564510 
1600.593852  	100.368672 
1602.025510  	100.316861 
1603.457168  	100.438797 
1604.888826  	100.734384 
1606.320485  	101.118241 
1607.752143  	101.601049 
1609.183801  	102.213042 
1610.615459  	102.694899 
1612.047117  	103.081624 
1613.478775  	103.304638 
1614.910434  	103.301414 
1616.342092  	103.457808 
1617.773750  	103.857795 
1619.205408  	103.908172 
1620.637066  	103.804319 
1622.068725  	103.728191 
1623.500383  	103.886283 
1624.932041  	104.057654 
1626.363699  	103.959854 
1627.795357  	103.913751 
1629.227016  	103.945572 
1630.658674  	103.838974 
1632.090332  	103.723655 
1633.521990  	103.545445 
1634.953648  	103.319247 
1636.385306  	103.510933 
1637.816965  	103.565399 
1639.248623  	103.386131 
1640.680281  	103.357424 
1642.111939  	103.292975 
1643.543597  	103.079768 
1644.975256  	102.878282 
1646.406914  	102.808279 
1647.838572  	103.061749 
1649.270230  	103.071561 
1650.701888  	102.736291 
1652.133547  	102.348967 
1653.565205  	102.703693 
1654.996863  	103.109343 
1656.428521  	102.935656 
1657.860179  	102.792914 
1659.291837  	102.779325 
1660.723496  	102.717245 
1662.155154  	102.647306 
1663.586812  	102.798893 
1665.018470  	102.780009 
1666.450128  	102.607755 
1667.881787  	102.532551 
1669.313445  	102.552625 
1670.745103  	102.759625 
1672.176761  	102.790373 
1673.608419  	102.485533 
1675.040077  	102.435340 
1676.471736  	102.736095 
1677.903394  	102.579033 
1679.335052  	102.423790 
1680.766710  	102.393449 
1682.198368  	102.119635 
1683.630027  	101.868326 
1685.061685  	102.381569 
1686.493343  	102.371578 
1687.925001  	102.086224 
1689.356659  	101.967366 
1690.788318  	101.929320 
1692.219976  	101.721622 
1693.651634  	101.393510 
1695.083292  	101.093428 
1696.514950  	101.217232 
1697.946608  	101.134496 
1699.378267  	100.650573 
1700.809925  	100.774904 
1702.241583  	100.846402 
1703.673241  	100.260255 
1705.104899  	100.020352 
1706.536558  	100.121079 
1707.968216  	99.781227 
1709.399874  	99.578296 
1710.831532  	99.405533 
1712.263190  	99.026039 
1713.694849  	98.793026 
1715.126507  	98.500376 
1716.558165  	98.176510 
1717.989823  	98.193429 
1719.421481  	97.961795 
1720.853139  	97.624451 
1722.284798  	97.274279 
1723.716456  	96.873434 
1725.148114  	96.634369 
1726.579772  	96.239720 
1728.011430  	95.760023 
1729.443089  	95.463791 
1730.874747  	95.042434 
1732.306405  	94.601833 
1733.738063  	94.345422 
1735.169721  	94.229857 
1736.601379  	93.826211 
1738.033038  	93.122650 
1739.464696  	92.580829 
1740.896354  	92.267304 
1742.328012  	91.460501 
1743.759670  	90.752566 
1745.191329  	90.031875 
1746.622987  	88.865390 
1748.054645  	87.908416 
1749.486303  	86.772019 
1750.917961  	85.245239 
1752.349620  	83.886445 
1753.781278  	81.973530 
1755.212936  	79.928110 
1756.644594  	77.845346 
1758.076252  	74.984302 
1759.507910  	72.344397 
1760.939569  	69.852687 
1762.371227  	66.852918 
1763.802885  	64.766125 
1765.234543  	63.360878 
1766.666201  	62.117072 
1768.097860  	62.078442 
1769.529518  	62.514937 
1770.961176  	62.841215 
1772.392834  	64.540154 
1773.824492  	66.316761 
1775.256150  	67.618318 
1776.687809  	69.661375 
1778.119467  	71.475571 
1779.551125  	73.336205 
1780.982783  	75.946342 
1782.414441  	77.985799 
1783.846100  	80.048316 
1785.277758  	82.629285 
1786.709416  	84.761181 
1788.141074  	87.063229 
1789.572732  	89.250338 
1791.004391  	91.022689 
1792.436049  	93.684799 
1793.867707  	95.799292 
1795.299365  	97.160303 
1796.731023  	98.894577 
1798.162681  	99.991540 
1799.594340  	100.952156 
1801.025998  	102.131791 
1802.457656  	102.660352 
1803.889314  	103.324290 
1805.320972  	103.825494 
1806.752631  	104.056439 
1808.184289  	104.600466 
1809.615947  	104.716835 
1811.047605  	104.757926 
1812.479263  	105.103526 
1813.910922  	105.108021 
1815.342580  	105.341000 
1816.774238  	105.596699 
1818.205896  	105.501136 
1819.637554  	105.635697 
1821.069212  	105.626900 
1822.500871  	105.602178 
1823.932529  	105.725622 
1825.364187  	105.602612 
1826.795845  	105.781606 
1828.227503  	105.838554 
1829.659162  	105.609992 
1831.090820  	105.878212 
1832.522478  	105.839814 
1833.954136  	105.731678 
1835.385794  	105.952553 
1836.817452  	105.801525 
1838.249111  	105.781641 
1839.680769  	105.892511 
1841.112427  	105.623114 
1842.544085  	105.648340 
1843.975743  	105.808353 
1845.407402  	105.838147 
1846.839060  	105.983301 
1848.270718  	105.821867 
1849.702376  	105.789750 
1851.134034  	105.844378 
1852.565693  	105.658973 
1853.997351  	105.826952 
1855.429009  	105.832641 
1856.860667  	105.563369 
1858.292325  	105.673422 
1859.723983  	105.605609 
1861.155642  	105.601828 
1862.587300  	105.846047 
1864.018958  	105.719556 
1865.450616  	105.710351 
1866.882274  	105.599762 
1868.313933  	105.267968 
1869.745591  	105.633718 
1871.177249  	105.630148 
1872.608907  	105.338818 
1874.040565  	105.513616 
1875.472224  	105.421103 
1876.903882  	105.286034 
1878.335540  	105.431649 
1879.767198  	105.402016 
1881.198856  	105.471197 
1882.630514  	105.422178 
1884.062173  	105.254413 
1885.493831  	105.315243 
1886.925489  	105.099366 
1888.357147  	104.932673 
1889.788805  	105.035650 
1891.220464  	104.880504 
1892.652122  	104.845877 
1894.083780  	104.801800 
1895.515438  	104.602309 
1896.947096  	104.603811 
1898.378754  	104.536731 
1899.810413  	104.645974 
1901.242071  	104.843330 
1902.673729  	104.603410 
1904.105387  	104.529882 
1905.537045  	104.658341 
1906.968704  	104.766712 
1908.400362  	105.050381 
1909.832020  	105.030770 
1911.263678  	105.006883 
1912.695336  	105.198873 
1914.126995  	105.199021 
1915.558653  	105.539645 
1916.990311  	105.798898 
1918.421969  	105.464643 
1919.853627  	105.497231 
1921.285285  	105.443177 
1922.716944  	105.275409 
1924.148602  	105.511535 
1925.580260  	105.315066 
1927.011918  	105.165083 
1928.443576  	105.448439 
1929.875235  	105.517466 
1931.306893  	105.657696 
1932.738551  	105.622276 
1934.170209  	105.446665 
1935.601867  	105.661658 
1937.033525  	105.583146 
1938.465184  	105.469867 
1939.896842  	105.487287 
1941.328500  	105.131207 
1942.760158  	105.183428 
1944.191816  	105.254041 
1945.623475  	105.014849 
1947.055133  	105.229445 
1948.486791  	105.170185 
1949.918449  	105.103992 
1951.350107  	105.322117 
1952.781766  	105.015118 
1954.213424  	105.146973 
1955.645082  	105.425545 
1957.076740  	105.188031 
1958.508398  	105.593677 
1959.940056  	105.424023 
1961.371715  	104.764108 
1962.803373  	105.395694 
1964.235031  	105.521967 
1965.666689  	104.875244 
1967.098347  	104.813762 
1968.530006  	104.755061 
1969.961664  	104.688271 
1971.393322  	104.534752 
1972.824980  	104.603324 
1974.256638  	105.178046 
1975.688297  	104.922027 
1977.119955  	104.467113 
1978.551613  	104.710328 
1979.983271  	104.930721 
1981.414929  	105.121053 
1982.846587  	104.885213 
1984.278246  	104.799570 
1985.709904  	105.264541 
1987.141562  	105.077420 
1988.573220  	104.938253 
1990.004878  	104.934342 
1991.436537  	104.356245 
1992.868195  	104.775230 
1994.299853  	105.344271 
1995.731511  	104.814432 
1997.163169  	104.660922 
1998.594827  	104.789389 
2000.026486  	104.961941 
2001.458144  	105.132909 
2002.889802  	104.471684 
2004.321460  	104.265777 
2005.753118  	104.791642 
2007.184777  	104.794340 
2008.616435  	104.686211 
2010.048093  	104.317170 
2011.479751  	104.120997 
2012.911409  	104.602049 
2014.343068  	104.727977 
2015.774726  	104.847154 
2017.206384  	104.870172 
2018.638042  	104.428347 
2020.069700  	104.532930 
2021.501358  	104.337338 
2022.933017  	104.115760 
2024.364675  	104.610631 
2025.796333  	104.295200 
2027.227991  	104.137714 
2028.659649  	104.715238 
2030.091308  	104.539107 
2031.522966  	104.490948 
2032.954624  	104.438087 
2034.386282  	104.094301 
2035.817940  	104.489028 
2037.249599  	104.524583 
2038.681257  	104.186657 
2040.112915  	104.201359 
2041.544573  	104.013764 
2042.976231  	104.039127 
2044.407889  	104.143586 
2045.839548  	104.084553 
2047.271206  	104.317385 
2048.702864  	104.441163 
2050.134522  	104.533687 
2051.566180  	104.434003 
2052.997839  	103.995675 
2054.429497  	104.239267 
2055.861155  	104.664329 
2057.292813  	104.696046 
2058.724471  	104.973441 
2060.156129  	104.827197 
2061.587788  	104.506950 
2063.019446  	104.821121 
2064.451104  	104.894023 
2065.882762  	104.777566 
2067.314420  	104.858791 
2068.746079  	104.837109 
2070.177737  	104.917672 
2071.609395  	104.806561 
2073.041053  	104.662965 
2074.472711  	104.832481 
2075.904370  	104.749199 
2077.336028  	104.801239 
2078.767686  	105.090098 
2080.199344  	104.946694 
2081.631002  	104.802623 
2083.062660  	104.769550 
2084.494319  	104.720677 
2085.925977  	104.746172 
2087.357635  	104.556611 
2088.789293  	104.602049 
2090.220951  	104.843538 
2091.652610  	104.714079 
2093.084268  	104.773226 
2094.515926  	104.832761 
2095.947584  	104.734593 
2097.379242  	105.065520 
2098.810901  	104.996969 
2100.242559  	104.594257 
2101.674217  	104.653453 
2103.105875  	104.621536 
2104.537533  	104.768342 
2105.969191  	105.099810 
2107.400850  	104.883299 
2108.832508  	104.790402 
2110.264166  	104.936049 
2111.695824  	104.901268 
2113.127482  	104.901162 
2114.559141  	104.749158 
2115.990799  	104.727595 
2117.422457  	104.930161 
2118.854115  	104.889180 
2120.285773  	104.987153 
2121.717431  	105.002072 
2123.149090  	104.679580 
2124.580748  	104.745440 
2126.012406  	104.759320 
2127.444064  	104.435224 
2128.875722  	104.479638 
2130.307381  	104.723185 
2131.739039  	104.881537 
2133.170697  	104.787773 
2134.602355  	104.521911 
2136.034013  	104.636630 
2137.465672  	104.555522 
2138.897330  	104.262023 
2140.328988  	104.416891 
2141.760646  	104.440187 
2143.192304  	104.345597 
2144.623962  	104.220116 
2146.055621  	103.961315 
2147.487279  	104.275671 
2148.918937  	104.357915 
2150.350595  	103.916297 
2151.782253  	104.016147 
2153.213912  	103.848635 
2154.645570  	103.482158 
2156.077228  	103.672935 
2157.508886  	103.714394 
2158.940544  	103.954993 
2160.372202  	104.042111 
2161.803861  	103.668667 
2163.235519  	103.981636 
2164.667177  	104.287812 
2166.098835  	104.270890 
2167.530493  	104.270700 
2168.962152  	104.124963 
2170.393810  	104.423702 
2171.825468  	104.544571 
2173.257126  	104.196613 
2174.688784  	104.497232 
2176.120443  	104.582268 
2177.552101  	104.122375 
2178.983759  	104.184070 
2180.415417  	104.325121 
2181.847075  	104.295108 
2183.278733  	103.993932 
2184.710392  	103.599529 
2186.142050  	103.936890 
2187.573708  	104.069107 
2189.005366  	103.651648 
2190.437024  	103.843098 
2191.868683  	104.130728 
2193.300341  	103.992720 
2194.731999  	103.970071 
2196.163657  	104.174622 
2197.595315  	104.493972 
2199.026974  	104.504641 
2200.458632  	104.180137 
2201.890290  	104.033138 
2203.321948  	104.034462 
2204.753606  	104.107994 
2206.185264  	104.048350 
2207.616923  	103.881752 
2209.048581  	104.036684 
2210.480239  	104.221881 
2211.911897  	104.326115 
2213.343555  	104.348404 
2214.775214  	103.950245 
2216.206872  	103.823101 
2217.638530  	104.079330 
2219.070188  	104.021600 
2220.501846  	103.840954 
2221.933504  	103.625309 
2223.365163  	103.657944 
2224.796821  	103.951009 
2226.228479  	103.584161 
2227.660137  	103.234519 
2229.091795  	103.644931 
2230.523454  	103.930280 
2231.955112  	104.024740 
2233.386770  	104.046593 
2234.818428  	103.844769 
2236.250086  	103.888880 
2237.681745  	103.921830 
2239.113403  	103.798082 
2240.545061  	103.919649 
2241.976719  	104.036887 
2243.408377  	104.042052 
2244.840035  	103.985662 
2246.271694  	103.980497 
2247.703352  	104.221448 
2249.135010  	104.170204 
2250.566668  	103.925022 
2251.998326  	104.057661 
2253.429985  	104.174429 
2254.861643  	104.177195 
2256.293301  	104.111857 
2257.724959  	103.903718 
2259.156617  	104.035175 
2260.588276  	104.272967 
2262.019934  	104.236770 
2263.451592  	104.248777 
2264.883250  	104.281651 
2266.314908  	104.423457 
2267.746566  	104.642693 
2269.178225  	104.572926 
2270.609883  	104.453923 
2272.041541  	104.295881 
2273.473199  	104.191336 
2274.904857  	104.554130 
2276.336516  	104.810596 
2277.768174  	104.680963 
2279.199832  	104.634322 
2280.631490  	104.579684 
2282.063148  	104.512326 
2283.494806  	104.514423 
2284.926465  	104.540607 
2286.358123  	104.662142 
2287.789781  	104.631350 
2289.221439  	104.537701 
2290.653097  	104.597525 
2292.084756  	104.487173 
2293.516414  	104.395473 
2294.948072  	104.485931 
2296.379730  	104.392108 
2297.811388  	104.326296 
2299.243047  	104.375289 
2300.674705  	104.248293 
2302.106363  	104.116845 
2303.538021  	104.030508 
2304.969679  	103.915085 
2306.401337  	103.839363 
2307.832996  	103.734876 
2309.264654  	103.667439 
2310.696312  	103.596522 
2312.127970  	103.416162 
2313.559628  	103.367742 
2314.991287  	103.413758 
2316.422945  	103.341966 
2317.854603  	103.199483 
2319.286261  	102.959894 
2320.717919  	102.719379 
2322.149577  	102.656020 
2323.581236  	102.716574 
2325.012894  	102.745990 
2326.444552  	102.580932 
2327.876210  	102.298993 
2329.307868  	102.142162 
2330.739527  	102.158305 
2332.171185  	102.248323 
2333.602843  	102.239678 
2335.034501  	102.154093 
2336.466159  	102.128784 
2337.897818  	102.030744 
2339.329476  	101.937691 
2340.761134  	101.958019 
2342.192792  	101.888221 
2343.624450  	101.884971 
2345.056108  	102.081535 
2346.487767  	102.458605 
2347.919425  	102.977090 
2349.351083  	103.071591 
2350.782741  	102.547057 
2352.214399  	102.014630 
2353.646058  	101.811079 
2355.077716  	101.549121 
2356.509374  	101.266217 
2357.941032  	101.140078 
2359.372690  	101.142230 
2360.804349  	101.156247 
2362.236007  	101.095328 
2363.667665  	101.185315 
2365.099323  	101.393944 
2366.530981  	101.558103 
2367.962639  	101.751213 
2369.394298  	101.927578 
2370.825956  	102.149002 
2372.257614  	102.414181 
2373.689272  	102.642934 
2375.120930  	102.950823 
2376.552589  	103.176794 
2377.984247  	103.284275 
2379.415905  	103.542089 
2380.847563  	103.841909 
2382.279221  	104.068513 
2383.710879  	104.242878 
2385.142538  	104.286289 
2386.574196  	104.317954 
2388.005854  	104.335920 
2389.437512  	104.250654 
2390.869170  	104.286057 
2392.300829  	104.399945 
2393.732487  	104.374323 
2395.164145  	104.353236 
2396.595803  	104.396557 
2398.027461  	104.375782 
2399.459120  	104.319046 
2400.890778  	104.340409 
2402.322436  	104.379208 
2403.754094  	104.296069 
2405.185752  	104.267512 
2406.617410  	104.388246 
2408.049069  	104.383284 
2409.480727  	104.280554 
2410.912385  	104.266335 
2412.344043  	104.280885 
2413.775701  	104.278949 
2415.207360  	104.210657 
2416.639018  	104.174817 
2418.070676  	104.326226 
2419.502334  	104.423647 
2420.933992  	104.319605 
2422.365651  	104.219915 
2423.797309  	104.241560 
2425.228967  	104.369350 
2426.660625  	104.483472 
2428.092283  	104.509010 
2429.523941  	104.466708 
2430.955600  	104.342135 
2432.387258  	104.326421 
2433.818916  	104.500243 
2435.250574  	104.563267 
2436.682232  	104.460251 
2438.113891  	104.388152 
2439.545549  	104.410477 
2440.977207  	104.458071 
2442.408865  	104.407637 
2443.840523  	104.324917 
2445.272181  	104.311922 
2446.703840  	104.318372 
2448.135498  	104.358704 
2449.567156  	104.399335 
2450.998814  	104.423553 
2452.430472  	104.495557 
2453.862131  	104.525918 
2455.293789  	104.551816 
2456.725447  	104.609474 
2458.157105  	104.518797 
2459.588763  	104.395293 
2461.020422  	104.400157 
2462.452080  	104.438134 
2463.883738  	104.491020 
2465.315396  	104.495408 
2466.747054  	104.444208 
2468.178712  	104.455743 
2469.610371  	104.454223 
2471.042029  	104.414435 
2472.473687  	104.394833 
2473.905345  	104.375311 
2475.337003  	104.390389 
2476.768662  	104.373084 
2478.200320  	104.304777 
2479.631978  	104.322666 
2481.063636  	104.388890 
2482.495294  	104.445589 
2483.926953  	104.475136 
2485.358611  	104.450747 
2486.790269  	104.456143 
2488.221927  	104.446947 
2489.653585  	104.452876 
2491.085243  	104.598168 
2492.516902  	104.635767 
2493.948560  	104.505208 
2495.380218  	104.463536 
2496.811876  	104.463912 
2498.243534  	104.488466 
2499.675193  	104.591665 
2501.106851  	104.636692 
2502.538509  	104.641084 
2503.970167  	104.660571 
2505.401825  	104.617377 
2506.833483  	104.549898 
2508.265142  	104.546341 
2509.696800  	104.569248 
2511.128458  	104.537183 
2512.560116  	104.541259 
2513.991774  	104.659280 
2515.423433  	104.718395 
2516.855091  	104.661513 
2518.286749  	104.617333 
2519.718407  	104.660965 
2521.150065  	104.763572 
2522.581724  	104.722071 
2524.013382  	104.576390 
2525.445040  	104.591570 
2526.876698  	104.673804 
2528.308356  	104.719570 
2529.740014  	104.719228 
2531.171673  	104.625668 
2532.603331  	104.652332 
2534.034989  	104.718360 
2535.466647  	104.629436 
2536.898305  	104.703194 
2538.329964  	104.843395 
2539.761622  	104.748170 
2541.193280  	104.697761 
2542.624938  	104.724754 
2544.056596  	104.666657 
2545.488254  	104.639228 
2546.919913  	104.671583 
2548.351571  	104.766276 
2549.783229  	104.841985 
2551.214887  	104.796213 
2552.646545  	104.781280 
2554.078204  	104.830927 
2555.509862  	104.855999 
2556.941520  	104.805429 
2558.373178  	104.683660 
2559.804836  	104.689060 
2561.236495  	104.753071 
2562.668153  	104.703540 
2564.099811  	104.709560 
2565.531469  	104.705371 
2566.963127  	104.649381 
2568.394785  	104.747125 
2569.826444  	104.819445 
2571.258102  	104.802118 
2572.689760  	104.849101 
2574.121418  	104.801394 
2575.553076  	104.698101 
2576.984735  	104.706931 
2578.416393  	104.745984 
2579.848051  	104.769157 
2581.279709  	104.731928 
2582.711367  	104.675595 
2584.143026  	104.730032 
2585.574684  	104.794641 
2587.006342  	104.743871 
2588.438000  	104.619084 
2589.869658  	104.595835 
2591.301316  	104.733441 
2592.732975  	104.764766 
2594.164633  	104.698666 
2595.596291  	104.761124 
2597.027949  	104.786424 
2598.459607  	104.771980 
2599.891266  	104.913291 
2601.322924  	105.022418 
2602.754582  	104.985435 
2604.186240  	104.921950 
2605.617898  	104.842904 
2607.049556  	104.783933 
2608.481215  	104.780500 
2609.912873  	104.787701 
2611.344531  	104.829478 
2612.776189  	104.910741 
2614.207847  	104.939951 
2615.639506  	104.923389 
2617.071164  	104.918184 
2618.502822  	104.839126 
2619.934480  	104.722518 
2621.366138  	104.755750 
2622.797797  	104.865044 
2624.229455  	104.927213 
2625.661113  	104.966724 
2627.092771  	104.962665 
2628.524429  	104.975381 
2629.956087  	105.000930 
2631.387746  	104.949466 
2632.819404  	104.958098 
2634.251062  	105.009007 
2635.682720  	104.966181 
2637.114378  	104.947623 
2638.546037  	104.927845 
2639.977695  	104.885176 
2641.409353  	104.954953 
2642.841011  	104.989364 
2644.272669  	104.933654 
2645.704328  	104.953712 
2647.135986  	104.986703 
2648.567644  	104.968711 
2649.999302  	104.936883 
2651.430960  	104.916789 
2652.862618  	104.943900 
2654.294277  	104.950732 
2655.725935  	104.942766 
2657.157593  	104.961939 
2658.589251  	104.912712 
2660.020909  	104.846879 
2661.452568  	104.829834 
2662.884226  	104.801246 
2664.315884  	104.816258 
2665.747542  	104.854954 
2667.179200  	104.844311 
2668.610858  	104.841195 
2670.042517  	104.842613 
2671.474175  	104.852462 
2672.905833  	104.861034 
2674.337491  	104.810475 
2675.769149  	104.796757 
2677.200808  	104.819131 
2678.632466  	104.793467 
2680.064124  	104.797131 
2681.495782  	104.800470 
2682.927440  	104.781174 
2684.359099  	104.827816 
2685.790757  	104.851109 
2687.222415  	104.822211 
2688.654073  	104.835179 
2690.085731  	104.838586 
2691.517389  	104.793694 
2692.949048  	104.763633 
2694.380706  	104.795991 
2695.812364  	104.834940 
2697.244022  	104.811747 
2698.675680  	104.813358 
2700.107339  	104.844433 
2701.538997  	104.805012 
2702.970655  	104.754016 
2704.402313  	104.737476 
2705.833971  	104.744884 
2707.265630  	104.757676 
2708.697288  	104.717609 
2710.128946  	104.697926 
2711.560604  	104.700889 
2712.992262  	104.653128 
2714.423920  	104.683930 
2715.855579  	104.748587 
2717.287237  	104.715975 
2718.718895  	104.711998 
2720.150553  	104.726186 
2721.582211  	104.722060 
2723.013870  	104.776503 
2724.445528  	104.775014 
2725.877186  	104.716666 
2727.308844  	104.721223 
2728.740502  	104.729528 
2730.172160  	104.725513 
2731.603819  	104.714791 
2733.035477  	104.695823 
2734.467135  	104.728344 
2735.898793  	104.748940 
2737.330451  	104.737180 
2738.762110  	104.756464 
2740.193768  	104.750828 
2741.625426  	104.727538 
2743.057084  	104.756601 
2744.488742  	104.822061 
2745.920401  	104.858400 
2747.352059  	104.812751 
2748.783717  	104.763808 
2750.215375  	104.756656 
2751.647033  	104.740027 
2753.078691  	104.765211 
2754.510350  	104.779227 
2755.942008  	104.711652 
2757.373666  	104.690930 
2758.805324  	104.695595 
2760.236982  	104.657052 
2761.668641  	104.644359 
2763.100299  	104.639016 
2764.531957  	104.669388 
2765.963615  	104.743068 
2767.395273  	104.731813 
2768.826931  	104.667790 
2770.258590  	104.610057 
2771.690248  	104.542248 
2773.121906  	104.523036 
2774.553564  	104.537436 
2775.985222  	104.551154 
2777.416881  	104.562275 
2778.848539  	104.523368 
2780.280197  	104.506517 
2781.711855  	104.562618 
2783.143513  	104.598317 
2784.575172  	104.610926 
2786.006830  	104.624197 
2787.438488  	104.614396 
2788.870146  	104.612854 
2790.301804  	104.629426 
2791.733462  	104.615022 
2793.165121  	104.560736 
2794.596779  	104.533926 
2796.028437  	104.538874 
2797.460095  	104.531954 
2798.891753  	104.581245 
2800.323412  	104.648229 
2801.755070  	104.607604 
2803.186728  	104.550777 
2804.618386  	104.531693 
2806.050044  	104.508228 
2807.481703  	104.516207 
2808.913361  	104.509053 
2810.345019  	104.496320 
2811.776677  	104.527158 
2813.208335  	104.510959 
2814.639993  	104.498748 
2816.071652  	104.525163 
2817.503310  	104.480575 
2818.934968  	104.452934 
2820.366626  	104.477472 
2821.798284  	104.466355 
2823.229943  	104.476406 
2824.661601  	104.504255 
2826.093259  	104.523420 
2827.524917  	104.524025 
2828.956575  	104.430704 
2830.388233  	104.371339 
2831.819892  	104.435894 
2833.251550  	104.467080 
2834.683208  	104.443107 
2836.114866  	104.402983 
2837.546524  	104.354678 
2838.978183  	104.367447 
2840.409841  	104.372302 
2841.841499  	104.306483 
2843.273157  	104.252231 
2844.704815  	104.221632 
2846.136474  	104.181899 
2847.568132  	104.125064 
2848.999790  	104.082672 
2850.431448  	104.077148 
2851.863106  	104.029136 
2853.294764  	103.947799 
2854.726423  	103.889266 
2856.158081  	103.796525 
2857.589739  	103.717912 
2859.021397  	103.692317 
2860.453055  	103.588159 
2861.884714  	103.389885 
2863.316372  	103.183325 
2864.748030  	102.988029 
2866.179688  	102.796767 
2867.611346  	102.589612 
2869.043005  	102.385882 
2870.474663  	102.226902 
2871.906321  	102.127589 
2873.337979  	102.133065 
2874.769637  	102.232412 
2876.201295  	102.327908 
2877.632954  	102.415053 
2879.064612  	102.565578 
2880.496270  	102.757158 
2881.927928  	102.891247 
2883.359586  	102.955085 
2884.791245  	103.000389 
2886.222903  	103.011742 
2887.654561  	103.005483 
2889.086219  	103.014328 
2890.517877  	102.981997 
2891.949535  	102.943223 
2893.381194  	102.974744 
2894.812852  	103.025004 
2896.244510  	103.077665 
2897.676168  	103.132245 
2899.107826  	103.127204 
2900.539485  	103.107617 
2901.971143  	103.122880 
2903.402801  	103.090087 
2904.834459  	102.987756 
2906.266117  	102.901374 
2907.697776  	102.847344 
2909.129434  	102.777706 
2910.561092  	102.705492 
2911.992750  	102.661464 
2913.424408  	102.635756 
2914.856066  	102.650563 
2916.287725  	102.715163 
2917.719383  	102.747839 
2919.151041  	102.705679 
2920.582699  	102.650671 
2922.014357  	102.593738 
2923.446016  	102.451376 
2924.877674  	102.230310 
2926.309332  	102.041910 
2927.740990  	101.901300 
2929.172648  	101.744639 
2930.604306  	101.560860 
2932.035965  	101.419654 
2933.467623  	101.399842 
2934.899281  	101.437490 
2936.330939  	101.447590 
2937.762597  	101.486650 
2939.194256  	101.555287 
2940.625914  	101.606702 
2942.057572  	101.666942 
2943.489230  	101.697175 
2944.920888  	101.690441 
2946.352547  	101.710889 
2947.784205  	101.696690 
2949.215863  	101.605496 
2950.647521  	101.484165 
2952.079179  	101.314273 
2953.510837  	101.081019 
2954.942496  	100.782407 
2956.374154  	100.379403 
2957.805812  	99.877071 
2959.237470  	99.361265 
2960.669128  	98.896268 
2962.100787  	98.420840 
2963.532445  	97.950033 
2964.964103  	97.620853 
2966.395761  	97.431474 
2967.827419  	97.375640 
2969.259078  	97.499385 
2970.690736  	97.711371 
2972.122394  	97.985398 
2973.554052  	98.399181 
2974.985710  	98.908394 
2976.417368  	99.439012 
2977.849027  	99.940863 
2979.280685  	100.403185 
2980.712343  	100.905018 
2982.144001  	101.405044 
2983.575659  	101.821082 
2985.007318  	102.218937 
2986.438976  	102.618373 
2987.870634  	102.989192 
2989.302292  	103.300731 
2990.733950  	103.535129 
2992.165608  	103.779583 
2993.597267  	104.001935 
2995.028925  	104.133216 
2996.460583  	104.291400 
2997.892241  	104.474802 
2999.323899  	104.621075 
3000.755558  	104.751158 
3002.187216  	104.815838 
3003.618874  	104.886207 
3005.050532  	105.019930 
3006.482190  	105.080301 
3007.913849  	105.089214 
3009.345507  	105.120824 
3010.777165  	105.144051 
3012.208823  	105.193795 
3013.640481  	105.264303 
3015.072139  	105.306177 
3016.503798  	105.286672 
3017.935456  	105.216049 
3019.367114  	105.216945 
3020.798772  	105.257925 
3022.230430  	105.227634 
3023.662089  	105.211746 
3025.093747  	105.226146 
3026.525405  	105.205219 
3027.957063  	105.126736 
3029.388721  	104.949329 
3030.820380  	104.783042 
3032.252038  	104.688560 
3033.683696  	104.523929 
3035.115354  	104.337744 
3036.547012  	104.241816 
3037.978670  	104.162272 
3039.410329  	104.060111 
3040.841987  	103.995114 
3042.273645  	104.028760 
3043.705303  	104.120174 
3045.136961  	104.185757 
3046.568620  	104.265868 
3048.000278  	104.358309 
3049.431936  	104.397926 
3050.863594  	104.415556 
3052.295252  	104.373898 
3053.726910  	104.263825 
3055.158569  	104.233819 
3056.590227  	104.281638 
3058.021885  	104.283182 
3059.453543  	104.269469 
3060.885201  	104.305015 
3062.316860  	104.335324 
3063.748518  	104.337643 
3065.180176  	104.390783 
3066.611834  	104.476746 
3068.043492  	104.529905 
3069.475151  	104.617777 
3070.906809  	104.731407 
3072.338467  	104.776045 
3073.770125  	104.804415 
3075.201783  	104.855527 
3076.633441  	104.876484 
3078.065100  	104.902841 
3079.496758  	104.970667 
3080.928416  	105.002449 
3082.360074  	104.991593 
3083.791732  	105.056374 
3085.223391  	105.165387 
3086.655049  	105.191188 
3088.086707  	105.188823 
3089.518365  	105.199665 
3090.950023  	105.196557 
3092.381682  	105.252863 
3093.813340  	105.330041 
3095.244998  	105.351042 
3096.676656  	105.362666 
3098.108314  	105.341530 
3099.539972  	105.325354 
3100.971631  	105.362567 
3102.403289  	105.320497 
3103.834947  	105.261696 
3105.266605  	105.341287 
3106.698263  	105.421641 
3108.129922  	105.387867 
3109.561580  	105.336774 
3110.993238  	105.351037 
3112.424896  	105.383519 
3113.856554  	105.369883 
3115.288212  	105.358622 
3116.719871  	105.379412 
3118.151529  	105.425334 
3119.583187  	105.487840 
3121.014845  	105.483698 
3122.446503  	105.468328 
3123.878162  	105.498797 
3125.309820  	105.451341 
3126.741478  	105.426395 
3128.173136  	105.500950 
3129.604794  	105.498534 
3131.036453  	105.493221 
3132.468111  	105.573928 
3133.899769  	105.620747 
3135.331427  	105.634148 
3136.763085  	105.613321 
3138.194743  	105.596443 
3139.626402  	105.668799 
3141.058060  	105.700974 
3142.489718  	105.643293 
3143.921376  	105.610746 
3145.353034  	105.643914 
3146.784693  	105.715882 
3148.216351  	105.711323 
3149.648009  	105.638956 
3151.079667  	105.620929 
3152.511325  	105.627539 
3153.942983  	105.670760 
3155.374642  	105.715145 
3156.806300  	105.654708 
3158.237958  	105.620808 
3159.669616  	105.648706 
3161.101274  	105.666573 
3162.532933  	105.738444 
3163.964591  	105.770288 
3165.396249  	105.724402 
3166.827907  	105.709451 
3168.259565  	105.685025 
3169.691224  	105.679818 
3171.122882  	105.689113 
3172.554540  	105.660093 
3173.986198  	105.732842 
3175.417856  	105.835222 
3176.849514  	105.819338 
3178.281173  	105.782612 
3179.712831  	105.723496 
3181.144489  	105.681652 
3182.576147  	105.719959 
3184.007805  	105.724157 
3185.439464  	105.730963 
3186.871122  	105.748503 
3188.302780  	105.706768 
3189.734438  	105.718130 
3191.166096  	105.720356 
3192.597755  	105.655104 
3194.029413  	105.685073 
3195.461071  	105.754481 
3196.892729  	105.808366 
3198.324387  	105.876849 
3199.756045  	105.813199 
3201.187704  	105.689259 
3202.619362  	105.687056 
3204.051020  	105.707888 
3205.482678  	105.682996 
3206.914336  	105.670207 
3208.345995  	105.674616 
3209.777653  	105.710241 
3211.209311  	105.782046 
3212.640969  	105.821964 
3214.072627  	105.816169 
3215.504285  	105.840244 
3216.935944  	105.845910 
3218.367602  	105.765232 
3219.799260  	105.733670 
3221.230918  	105.778053 
3222.662576  	105.802130 
3224.094235  	105.845932 
3225.525893  	105.857151 
3226.957551  	105.804063 
3228.389209  	105.820978 
3229.820867  	105.853345 
3231.252526  	105.813447 
3232.684184  	105.785541 
3234.115842  	105.796152 
3235.547500  	105.830252 
3236.979158  	105.854764 
3238.410816  	105.835008 
3239.842475  	105.828271 
3241.274133  	105.867297 
3242.705791  	105.926215 
3244.137449  	105.926953 
3245.569107  	105.816519 
3247.000766  	105.735001 
3248.432424  	105.767631 
3249.864082  	105.814991 
3251.295740  	105.821364 
3252.727398  	105.817392 
3254.159057  	105.866393 
3255.590715  	105.909939 
3257.022373  	105.848632 
3258.454031  	105.813185 
3259.885689  	105.859541 
3261.317347  	105.862913 
3262.749006  	105.825898 
3264.180664  	105.766093 
3265.612322  	105.728226 
3267.043980  	105.798665 
3268.475638  	105.862567 
3269.907297  	105.830657 
3271.338955  	105.791703 
3272.770613  	105.818553 
3274.202271  	105.908885 
3275.633929  	105.948147 
3277.065587  	105.890457 
3278.497246  	105.831650 
3279.928904  	105.811356 
3281.360562  	105.870746 
3282.792220  	105.951639 
3284.223878  	105.915398 
3285.655537  	105.866702 
3287.087195  	105.868237 
3288.518853  	105.831510 
3289.950511  	105.829542 
3291.382169  	105.868558 
3292.813828  	105.865690 
3294.245486  	105.853471 
3295.677144  	105.813356 
3297.108802  	105.762834 
3298.540460  	105.797884 
3299.972118  	105.875218 
3301.403777  	105.913790 
3302.835435  	105.925525 
3304.267093  	105.936138 
3305.698751  	105.903732 
3307.130409  	105.831537 
3308.562068  	105.852615 
3309.993726  	105.932263 
3311.425384  	105.924416 
3312.857042  	105.908059 
3314.288700  	105.907008 
3315.720359  	105.846739 
3317.152017  	105.828814 
3318.583675  	105.878250 
3320.015333  	105.882773 
3321.446991  	105.862565 
3322.878649  	105.883246 
3324.310308  	105.916083 
3325.741966  	105.900221 
3327.173624  	105.839762 
3328.605282  	105.820212 
3330.036940  	105.893104 
3331.468599  	105.952940 
3332.900257  	105.867811 
3334.331915  	105.764599 
3335.763573  	105.801232 
3337.195231  	105.839550 
3338.626889  	105.821679 
3340.058548  	105.866972 
3341.490206  	105.928175 
3342.921864  	105.932727 
3344.353522  	105.895074 
3345.785180  	105.870928 
3347.216839  	105.929327 
3348.648497  	105.954797 
3350.080155  	105.883630 
3351.511813  	105.882104 
3352.943471  	105.957606 
3354.375130  	105.995299 
3355.806788  	105.965169 
3357.238446  	105.887380 
3358.670104  	105.863371 
3360.101762  	105.899321 
3361.533420  	105.912722 
3362.965079  	105.915968 
3364.396737  	105.925596 
3365.828395  	105.978407 
3367.260053  	106.039643 
3368.691711  	105.976512 
3370.123370  	105.889029 
3371.555028  	105.909613 
3372.986686  	105.959471 
3374.418344  	105.969990 
3375.850002  	105.930068 
3377.281660  	105.930893 
3378.713319  	106.012407 
3380.144977  	106.004118 
3381.576635  	105.912181 
3383.008293  	105.889689 
3384.439951  	105.945169 
3385.871610  	106.033312 
3387.303268  	106.055086 
3388.734926  	106.009310 
3390.166584  	105.977969 
3391.598242  	105.923479 
3393.029901  	105.902380 
3394.461559  	105.909682 
3395.893217  	105.856100 
3397.324875  	105.914692 
3398.756533  	106.020942 
3400.188191  	105.954167 
3401.619850  	105.919446 
3403.051508  	105.944537 
3404.483166  	105.878092 
3405.914824  	105.872471 
3407.346482  	105.941560 
3408.778141  	105.964140 
3410.209799  	105.958188 
3411.641457  	105.927562 
3413.073115  	105.892476 
3414.504773  	105.892726 
3415.936432  	105.971229 
3417.368090  	106.061156 
3418.799748  	105.991585 
3420.231406  	105.917244 
3421.663064  	105.979861 
3423.094722  	105.941038 
3424.526381  	105.859501 
3425.958039  	105.923175 
3427.389697  	105.966100 
3428.821355  	105.902035 
3430.253013  	105.847406 
3431.684672  	105.878755 
3433.116330  	105.964188 
3434.547988  	105.993529 
3435.979646  	105.960479 
3437.411304  	105.940816 
3438.842962  	105.984399 
3440.274621  	106.024009 
3441.706279  	105.947131 
3443.137937  	105.905351 
3444.569595  	105.953533 
3446.001253  	105.890023 
3447.432912  	105.858222 
3448.864570  	105.952110 
3450.296228  	105.969179 
3451.727886  	105.999445 
3453.159544  	106.011577 
3454.591203  	105.894256 
3456.022861  	105.857118 
3457.454519  	105.839406 
3458.886177  	105.716168 
3460.317835  	105.718371 
3461.749493  	105.822190 
3463.181152  	105.850269 
3464.612810  	105.884224 
3466.044468  	105.951602 
3467.476126  	105.952947 
3468.907784  	105.904137 
3470.339443  	105.917014 
3471.771101  	105.925272 
3473.202759  	105.840282 
3474.634417  	105.827669 
3476.066075  	105.889834 
3477.497734  	105.835511 
3478.929392  	105.703176 
3480.361050  	105.594919 
3481.792708  	105.637261 
3483.224366  	105.833487 
3484.656024  	105.896426 
3486.087683  	105.857856 
3487.519341  	105.900151 
3488.950999  	105.889964 
3490.382657  	105.828527 
3491.814315  	105.834430 
3493.245974  	105.855487 
3494.677632  	105.872063 
3496.109290  	105.884990 
3497.540948  	105.896672 
3498.972606  	105.880155 
3500.404264  	105.789737 
3501.835923  	105.762491 
3503.267581  	105.824731 
3504.699239  	105.788848 
3506.130897  	105.744180 
3507.562555  	105.786452 
3508.994214  	105.776641 
3510.425872  	105.703706 
3511.857530  	105.704411 
3513.289188  	105.764754 
3514.720846  	105.772867 
3516.152505  	105.739260 
3517.584163  	105.745522 
3519.015821  	105.746769 
3520.447479  	105.687573 
3521.879137  	105.638026 
3523.310795  	105.687131 
3524.742454  	105.729839 
3526.174112  	105.584424 
3527.605770  	105.480277 
3529.037428  	105.600579 
3530.469086  	105.647131 
3531.900745  	105.632366 
3533.332403  	105.698046 
3534.764061  	105.679466 
3536.195719  	105.709592 
3537.627377  	105.831659 
3539.059035  	105.774821 
3540.490694  	105.748247 
3541.922352  	105.836863 
3543.354010  	105.774515 
3544.785668  	105.696522 
3546.217326  	105.778472 
3547.648985  	105.880568 
3549.080643  	105.883788 
3550.512301  	105.753958 
3551.943959  	105.674648 
3553.375617  	105.800191 
3554.807276  	105.858118 
3556.238934  	105.790513 
3557.670592  	105.802435 
3559.102250  	105.868269 
3560.533908  	105.894004 
3561.965566  	105.906525 
3563.397225  	105.854709 
3564.828883  	105.643139 
3566.260541  	105.483648 
3567.692199  	105.778352 
3569.123857  	106.131457 
3570.555516  	106.064332 
3571.987174  	105.890100 
3573.418832  	105.817309 
3574.850490  	105.834993 
3576.282148  	105.853996 
3577.713807  	105.879977 
3579.145465  	105.965299 
3580.577123  	105.993869 
3582.008781  	105.923122 
3583.440439  	105.856633 
3584.872097  	105.732007 
3586.303756  	105.599155 
3587.735414  	105.806106 
3589.167072  	106.195030 
3590.598730  	106.167408 
3592.030388  	105.963520 
3593.462047  	105.842523 
3594.893705  	105.792198 
3596.325363  	105.839639 
3597.757021  	105.922861 
3599.188679  	105.863416 
3600.620337  	105.881352 
3602.051996  	106.055145 
3603.483654  	106.046032 
3604.915312  	106.029718 
3606.346970  	106.109138 
3607.778628  	106.076080 
3609.210287  	106.163415 
3610.641945  	106.222262 
3612.073603  	106.024950 
3613.505261  	106.076610 
3614.936919  	106.201596 
3616.368578  	105.892322 
3617.800236  	105.580961 
3619.231894  	105.723192 
3620.663552  	106.223528 
3622.095210  	106.309959 
3623.526868  	106.041329 
3624.958527  	105.948399 
3626.390185  	105.717836 
3627.821843  	105.231852 
3629.253501  	105.771737 
3630.685159  	106.576849 
3632.116818  	106.099385 
3633.548476  	105.983736 
3634.980134  	106.242839 
3636.411792  	106.130250 
3637.843450  	106.103056 
3639.275109  	106.232792 
3640.706767  	106.118578 
3642.138425  	106.040173 
3643.570083  	106.107460 
3645.001741  	105.972002 
3646.433399  	105.695898 
3647.865058  	105.583363 
3649.296716  	105.585877 
3650.728374  	105.860359 
3652.160032  	106.416268 
3653.591690  	106.222609 
3655.023349  	105.744300 
3656.455007  	105.829476 
3657.886665  	106.135009 
3659.318323  	105.992487 
3660.749981  	105.990241 
3662.181639  	106.117637 
3663.613298  	106.105656 
3665.044956  	106.075501 
3666.476614  	106.038638 
3667.908272  	105.864956 
3669.339930  	105.641769 
3670.771589  	105.987682 
3672.203247  	106.161248 
3673.634905  	105.480749 
3675.066563  	105.222547 
3676.498221  	106.500689 
3677.929880  	106.397621 
3679.361538  	106.036353 
3680.793196  	106.214392 
3682.224854  	106.139373 
3683.656512  	106.084304 
3685.088170  	106.075698 
3686.519829  	105.642658 
3687.951487  	105.496538 
3689.383145  	106.083974 
3690.814803  	106.314467 
3692.246461  	106.403283 
3693.678120  	106.416928 
3695.109778  	106.181788 
3696.541436  	106.113151 
3697.973094  	106.161012 
3699.404752  	106.010322 
3700.836411  	105.917210 
3702.268069  	106.142642 
3703.699727  	106.308979 
3705.131385  	106.196912 
3706.563043  	106.062200 
3707.994701  	105.964541 
3709.426360  	105.838682 
3710.858018  	105.816271 
3712.289676  	106.100151 
3713.721334  	106.518797 
3715.152992  	106.570878 
3716.584651  	106.309032 
3718.016309  	106.141800 
3719.447967  	106.109046 
3720.879625  	105.949602 
3722.311283  	105.900156 
3723.742941  	106.053125 
3725.174600  	106.057037 
3726.606258  	106.120919 
3728.037916  	106.311906 
3729.469574  	106.137889 
3730.901232  	105.846017 
3732.332891  	105.881577 
3733.764549  	105.833781 
3735.196207  	105.670471 
3736.627865  	106.489968 
3738.059523  	106.879679 
3739.491182  	106.483420 
3740.922840  	106.370641 
3742.354498  	106.031598 
3743.786156  	105.501139 
3745.217814  	106.592239 
3746.649472  	106.889711 
3748.081131  	106.008672 
3749.512789  	105.878345 
3750.944447  	106.297550 
3752.376105  	106.410133 
3753.807763  	106.669410 
3755.239422  	106.445646 
3756.671080  	106.240442 
3758.102738  	106.405098 
3759.534396  	106.422935 
3760.966054  	106.609683 
3762.397712  	106.689246 
3763.829371  	106.317272 
3765.261029  	106.291367 
3766.692687  	106.511911 
3768.124345  	106.272346 
3769.556003  	106.268588 
3770.987662  	106.668818 
3772.419320  	106.712475 
3773.850978  	106.570138 
3775.282636  	106.522790 
3776.714294  	106.488015 
3778.145953  	106.320998 
3779.577611  	106.301803 
3781.009269  	106.505841 
3782.440927  	106.348728 
3783.872585  	106.172850 
3785.304243  	106.351560 
3786.735902  	106.438927 
3788.167560  	106.386628 
3789.599218  	106.318869 
3791.030876  	106.217051 
3792.462534  	106.339769 
3793.894193  	106.438990 
3795.325851  	106.297167 
3796.757509  	106.336521 
3798.189167  	106.327795 
3799.620825  	105.889198 
3801.052484  	105.683201 
3802.484142  	106.511284 
3803.915800  	106.697194 
3805.347458  	106.094619 
3806.779116  	106.084076 
3808.210774  	106.854723 
3809.642433  	106.656467 
3811.074091  	106.320532 
3812.505749  	106.351705 
3813.937407  	106.064995 
3815.369065  	105.880279 
3816.800724  	106.592916 
3818.232382  	106.482887 
3819.664040  	105.781815 
3821.095698  	105.991302 
3822.527356  	106.947446 
3823.959014  	106.582577 
3825.390673  	106.169842 
3826.822331  	106.421428 
3828.253989  	106.569982 
3829.685647  	106.238705 
3831.117305  	106.158243 
3832.548964  	106.333587 
3833.980622  	106.272416 
3835.412280  	106.137612 
3836.843938  	106.071357 
3838.275596  	106.085056 
3839.707255  	106.225164 
3841.138913  	106.299363 
3842.570571  	106.306958 
3844.002229  	106.434402 
3845.433887  	106.594788 
3846.865545  	106.483712 
3848.297204  	106.296205 
3849.728862  	106.246133 
3851.160520  	105.911237 
3852.592178  	105.381730 
3854.023836  	106.124624 
3855.455495  	106.870305 
3856.887153  	106.643553 
3858.318811  	106.599915 
3859.750469  	106.391084 
3861.182127  	106.141761 
3862.613786  	106.172132 
3864.045444  	106.075069 
3865.477102  	106.259736 
3866.908760  	106.483226 
3868.340418  	105.973789 
3869.772076  	105.860700 
3871.203735  	106.666498 
3872.635393  	106.412163 
3874.067051  	106.172801 
3875.498709  	106.593267 
3876.930367  	106.497188 
3878.362026  	106.115294 
3879.793684  	106.096679 
3881.225342  	106.501966 
3882.657000  	106.527534 
3884.088658  	106.024900 
3885.520316  	105.879422 
3886.951975  	106.533131 
3888.383633  	106.493493 
3889.815291  	106.110391 
3891.246949  	106.250898 
3892.678607  	106.618359 
3894.110266  	106.545302 
3895.541924  	106.374854 
3896.973582  	106.187949 
3898.405240  	105.989487 
3899.836898  	106.028055 
3901.268557  	106.183115 
3902.700215  	106.113789 
3904.131873  	106.166409 
3905.563531  	106.487054 
3906.995189  	106.570173 
3908.426847  	106.468013 
3909.858506  	106.414965 
3911.290164  	106.477083 
3912.721822  	106.580225 
3914.153480  	106.447679 
3915.585138  	106.176388 
3917.016797  	106.145894 
3918.448455  	106.256757 
3919.880113  	106.288845 
3921.311771  	106.305483 
3922.743429  	106.212631 
3924.175088  	106.203342 
3925.606746  	106.417736 
3927.038404  	106.417242 
3928.470062  	106.277852 
3929.901720  	106.268847 
3931.333378  	106.225626 
3932.765037  	106.226819 
3934.196695  	106.401130 
3935.628353  	106.430693 
3937.060011  	106.376053 
3938.491669  	106.421046 
3939.923328  	106.350814 
3941.354986  	106.170335 
3942.786644  	106.229143 
3944.218302  	106.426632 
3945.649960  	106.381393 
3947.081618  	106.306845 
3948.513277  	106.395576 
3949.944935  	106.437183 
3951.376593  	106.420969 
3952.808251  	106.452081 
3954.239909  	106.407958 
3955.671568  	106.372053 
3957.103226  	106.488567 
3958.534884  	106.562359 
3959.966542  	106.463076 
3961.398200  	106.365693 
3962.829859  	106.419600 
3964.261517  	106.500277 
3965.693175  	106.427133 
3967.124833  	106.336355 
3968.556491  	106.349992 
3969.988149  	106.298669 
3971.419808  	106.246457 
3972.851466  	106.358185 
3974.283124  	106.412316 
3975.714782  	106.340699 
3977.146440  	106.335384 
3978.578099  	106.340613 
3980.009757  	106.314459 
3981.441415  	106.322307 
3982.873073  	106.301724 
3984.304731  	106.292748 
3985.736389  	106.349673 
3987.168048  	106.329427 
3988.599706  	106.244072 
3990.031364  	106.271371 
3991.463022  	106.365222 
3992.894680  	106.377519 
3994.326339  	106.382143 
3995.757997  	106.444807 
3997.189655  	106.407687 
3998.621313  	106.263631 
4000.052971  	106.222683 