##TITLE=No Description
##DATA TYPE=INFRARED SPECTRUM
##XUNITS=1/CM
##YUNITS=%T
399.432634  	53.545209 
400.864292  	50.345563 
402.295950  	50.431838 
403.727608  	49.631522 
405.159267  	48.920985 
406.590925  	50.202753 
408.022583  	50.102992 
409.454241  	49.098654 
410.885899  	47.459547 
412.317558  	46.017304 
413.749216  	47.057679 
415.180874  	47.061454 
416.612532  	45.079707 
418.044190  	45.351573 
419.475848  	47.314308 
420.907507  	46.453769 
422.339165  	45.039013 
423.770823  	43.485871 
425.202481  	43.987769 
426.634139  	46.688924 
428.065798  	47.938166 
429.497456  	47.057914 
430.929114  	48.120534 
432.360772  	50.223751 
433.792430  	49.878911 
435.224089  	50.112814 
436.655747  	52.336773 
438.087405  	52.387960 
439.519063  	52.446114 
440.950721  	54.712356 
442.382379  	55.282361 
443.814038  	54.349986 
445.245696  	55.936003 
446.677354  	57.701895 
448.109012  	57.686076 
449.540670  	57.576377 
450.972329  	57.102426 
452.403987  	56.218535 
453.835645  	57.193506 
455.267303  	58.353123 
456.698961  	57.640283 
458.130619  	56.883673 
459.562278  	57.289612 
460.993936  	56.428377 
462.425594  	54.885922 
463.857252  	54.816997 
465.288910  	55.281400 
466.720569  	55.152567 
468.152227  	54.846790 
469.583885  	54.356997 
471.015543  	53.631798 
472.447201  	52.953155 
473.878860  	52.327631 
475.310518  	52.211937 
476.742176  	52.221607 
478.173834  	51.383106 
479.605492  	50.687432 
481.037150  	50.707262 
482.468809  	50.096709 
483.900467  	48.706523 
485.332125  	47.511210 
486.763783  	46.892396 
488.195441  	47.161610 
489.627100  	47.747764 
491.058758  	47.157037 
492.490416  	46.095840 
493.922074  	45.591319 
495.353732  	44.773317 
496.785391  	43.627674 
498.217049  	42.605898 
499.648707  	41.175373 
501.080365  	39.598618 
502.512023  	38.662136 
503.943681  	37.719022 
505.375340  	36.417816 
506.806998  	35.416749 
508.238656  	35.276638 
509.670314  	36.095540 
511.101972  	37.389548 
512.533631  	38.637468 
513.965289  	39.920725 
515.396947  	41.101014 
516.828605  	41.969704 
518.260263  	43.064583 
519.691921  	44.231959 
521.123580  	44.765920 
522.555238  	45.127246 
523.986896  	45.798144 
525.418554  	46.022731 
526.850212  	45.541641 
528.281871  	45.448219 
529.713529  	45.677605 
531.145187  	45.273394 
532.576845  	44.567140 
534.008503  	44.385553 
535.440162  	44.367900 
536.871820  	44.191597 
538.303478  	44.231514 
539.735136  	44.257089 
541.166794  	43.906745 
542.598452  	43.674817 
544.030111  	43.746299 
545.461769  	43.733280 
546.893427  	43.638081 
548.325085  	43.559137 
549.756743  	43.482253 
551.188402  	43.517423 
552.620060  	43.521964 
554.051718  	43.482914 
555.483376  	43.671298 
556.915034  	43.897598 
558.346692  	43.946968 
559.778351  	43.973090 
561.210009  	43.877973 
562.641667  	43.675933 
564.073325  	43.714874 
565.504983  	43.945593 
566.936642  	44.081427 
568.368300  	44.102837 
569.799958  	44.125598 
571.231616  	44.175225 
572.663274  	44.110377 
574.094933  	43.904870 
575.526591  	43.691098 
576.958249  	43.593597 
578.389907  	43.757629 
579.821565  	44.050058 
581.253223  	44.082950 
582.684882  	43.973118 
584.116540  	44.065142 
585.548198  	44.207889 
586.979856  	44.184910 
588.411514  	44.048624 
589.843173  	44.008082 
591.274831  	44.134566 
592.706489  	44.111929 
594.138147  	43.931950 
595.569805  	43.886663 
597.001464  	43.883128 
598.433122  	43.787543 
599.864780  	43.486042 
601.296438  	42.987616 
602.728096  	42.749883 
604.159754  	42.695620 
605.591413  	42.408663 
607.023071  	42.182923 
608.454729  	42.312986 
609.886387  	42.633638 
611.318045  	42.970354 
612.749704  	43.312104 
614.181362  	43.768834 
615.613020  	44.193943 
617.044678  	44.375895 
618.476336  	44.518525 
619.907994  	44.640553 
621.339653  	44.655458 
622.771311  	44.770936 
624.202969  	44.792782 
625.634627  	44.617074 
627.066285  	44.634292 
628.497944  	44.695287 
629.929602  	44.569492 
631.361260  	44.509345 
632.792918  	44.525922 
634.224576  	44.476305 
635.656235  	44.530251 
637.087893  	44.837545 
638.519551  	45.068570 
639.951209  	45.004192 
641.382867  	45.059393 
642.814525  	45.350739 
644.246184  	45.558875 
645.677842  	45.703160 
647.109500  	45.751897 
648.541158  	45.776386 
649.972816  	46.075844 
651.404475  	46.283799 
652.836133  	46.234659 
654.267791  	46.483147 
655.699449  	46.973542 
657.131107  	47.275223 
658.562766  	47.454030 
659.994424  	47.683206 
661.426082  	47.958762 
662.857740  	48.317235 
664.289398  	48.786685 
665.721056  	48.977558 
667.152715  	48.460113 
668.584373  	48.326888 
670.016031  	49.602664 
671.447689  	50.301843 
672.879347  	50.634037 
674.311006  	50.948734 
675.742664  	51.201014 
677.174322  	51.597225 
678.605980  	52.192573 
680.037638  	52.646977 
681.469296  	52.985820 
682.900955  	53.378077 
684.332613  	53.760277 
685.764271  	54.141546 
687.195929  	54.625665 
688.627587  	55.163918 
690.059246  	55.678172 
691.490904  	56.254949 
692.922562  	56.838641 
694.354220  	57.236439 
695.785878  	57.595238 
697.217537  	58.141778 
698.649195  	58.707393 
700.080853  	59.076781 
701.512511  	59.397363 
702.944169  	59.789389 
704.375827  	60.110723 
705.807486  	60.446880 
707.239144  	60.939732 
708.670802  	61.389852 
710.102460  	61.804906 
711.534118  	62.355177 
712.965777  	62.932505 
714.397435  	63.498515 
715.829093  	63.984952 
717.260751  	64.302887 
718.692409  	64.692737 
720.124067  	65.145409 
721.555726  	65.519237 
722.987384  	66.034582 
724.419042  	66.614846 
725.850700  	67.070568 
727.282358  	67.555647 
728.714017  	68.060282 
730.145675  	68.527908 
731.577333  	68.996448 
733.008991  	69.412001 
734.440649  	69.875575 
735.872308  	70.373483 
737.303966  	70.710969 
738.735624  	70.928964 
740.167282  	70.999052 
741.598940  	70.906843 
743.030598  	70.876639 
744.462257  	70.840456 
745.893915  	70.680476 
747.325573  	70.577034 
748.757231  	70.592000 
750.188889  	70.765974 
751.620548  	71.077616 
753.052206  	71.311470 
754.483864  	71.504849 
755.915522  	71.685037 
757.347180  	71.652388 
758.778839  	71.455893 
760.210497  	71.071018 
761.642155  	70.254222 
763.073813  	69.083793 
764.505471  	67.682735 
765.937129  	66.110821 
767.368788  	64.740526 
768.800446  	63.938854 
770.232104  	63.868619 
771.663762  	64.650045 
773.095420  	66.302391 
774.527079  	68.492333 
775.958737  	70.765587 
777.390395  	72.852804 
778.822053  	74.561624 
780.253711  	75.957169 
781.685369  	77.304334 
783.117028  	78.789968 
784.548686  	80.453485 
785.980344  	82.061909 
787.412002  	83.406933 
788.843660  	84.526951 
790.275319  	85.351677 
791.706977  	85.840780 
793.138635  	86.103509 
794.570293  	86.084002 
796.001951  	85.805637 
797.433610  	85.442989 
798.865268  	84.870775 
800.296926  	84.016967 
801.728584  	83.018411 
803.160242  	81.734699 
804.591900  	80.244364 
806.023559  	78.836246 
807.455217  	77.319286 
808.886875  	75.646664 
810.318533  	74.120039 
811.750191  	72.828498 
813.181850  	71.700049 
814.613508  	70.726373 
816.045166  	70.314530 
817.476824  	70.867727 
818.908482  	72.220005 
820.340141  	74.152467 
821.771799  	76.371184 
823.203457  	78.366649 
824.635115  	79.972649 
826.066773  	81.227664 
827.498431  	82.097179 
828.930090  	82.810391 
830.361748  	83.450862 
831.793406  	83.845764 
833.225064  	84.173575 
834.656722  	84.526221 
836.088381  	84.722537 
837.520039  	84.805709 
838.951697  	84.760873 
840.383355  	84.483289 
841.815013  	84.072288 
843.246671  	83.576119 
844.678330  	83.011752 
846.109988  	82.523454 
847.541646  	82.216674 
848.973304  	82.133487 
850.404962  	82.342157 
851.836621  	82.841729 
853.268279  	83.500711 
854.699937  	84.168930 
856.131595  	84.784909 
857.563253  	85.319699 
858.994912  	85.684473 
860.426570  	85.927480 
861.858228  	86.280279 
863.289886  	86.869245 
864.721544  	87.720460 
866.153202  	88.860034 
867.584861  	90.173634 
869.016519  	91.531302 
870.448177  	92.867134 
871.879835  	94.028001 
873.311493  	94.944912 
874.743152  	95.696767 
876.174810  	96.209213 
877.606468  	96.405971 
879.038126  	96.499011 
880.469784  	96.604537 
881.901443  	96.645693 
883.333101  	96.618355 
884.764759  	96.535885 
886.196417  	96.471864 
887.628075  	96.417952 
889.059733  	96.240504 
890.491392  	96.059807 
891.923050  	95.967522 
893.354708  	95.821280 
894.786366  	95.632529 
896.218024  	95.444242 
897.649683  	95.228210 
899.081341  	94.984836 
900.512999  	94.674687 
901.944657  	94.379558 
903.376315  	94.165779 
904.807973  	93.854964 
906.239632  	93.321665 
907.671290  	92.606394 
909.102948  	91.768116 
910.534606  	90.831907 
911.966264  	89.844176 
913.397923  	88.993620 
914.829581  	88.539529 
916.261239  	88.644810 
917.692897  	89.136609 
919.124555  	89.707033 
920.556214  	90.313626 
921.987872  	90.849742 
923.419530  	91.164912 
924.851188  	91.369240 
926.282846  	91.380024 
927.714504  	91.105848 
929.146163  	90.785125 
930.577821  	90.394639 
932.009479  	89.908382 
933.441137  	89.511855 
934.872795  	89.059247 
936.304454  	88.471953 
937.736112  	87.849866 
939.167770  	87.183420 
940.599428  	86.660117 
942.031086  	86.297312 
943.462744  	85.841832 
944.894403  	85.331924 
946.326061  	84.858985 
947.757719  	84.400512 
949.189377  	83.935164 
950.621035  	83.388207 
952.052694  	82.829005 
953.484352  	82.329179 
954.916010  	81.812208 
956.347668  	81.309930 
957.779326  	80.914644 
959.210985  	80.675181 
960.642643  	80.572074 
962.074301  	80.553261 
963.505959  	80.669258 
964.937617  	80.907636 
966.369275  	81.161200 
967.800934  	81.370598 
969.232592  	81.449903 
970.664250  	81.397236 
972.095908  	81.283339 
973.527566  	81.037579 
974.959225  	80.651888 
976.390883  	80.231431 
977.822541  	79.819705 
979.254199  	79.453041 
980.685857  	79.164006 
982.117516  	79.023585 
983.549174  	79.106671 
984.980832  	79.380160 
986.412490  	79.749304 
987.844148  	80.084589 
989.275806  	80.319467 
990.707465  	80.449050 
992.139123  	80.430328 
993.570781  	80.306099 
995.002439  	80.095191 
996.434097  	79.695560 
997.865756  	79.172421 
999.297414  	78.625792 
1000.729072  	78.043531 
1002.160730  	77.442501 
1003.592388  	76.754576 
1005.024046  	75.974664 
1006.455705  	75.163807 
1007.887363  	74.220421 
1009.319021  	73.109941 
1010.750679  	71.814589 
1012.182337  	70.241717 
1013.613996  	68.239328 
1015.045654  	65.600575 
1016.477312  	63.046044 
1017.908970  	62.126095 
1019.340628  	63.460964 
1020.772287  	66.325726 
1022.203945  	69.343776 
1023.635603  	71.488176 
1025.067261  	72.381593 
1026.498919  	72.047391 
1027.930577  	71.005123 
1029.362236  	69.839031 
1030.793894  	68.559819 
1032.225552  	67.212254 
1033.657210  	65.977847 
1035.088868  	64.794280 
1036.520527  	63.705372 
1037.952185  	62.688742 
1039.383843  	61.659306 
1040.815501  	60.618933 
1042.247159  	59.402080 
1043.678818  	58.017425 
1045.110476  	56.566276 
1046.542134  	55.029626 
1047.973792  	53.461946 
1049.405450  	51.724491 
1050.837108  	49.915611 
1052.268767  	48.237976 
1053.700425  	46.441967 
1055.132083  	44.783436 
1056.563741  	43.473497 
1057.995399  	42.188111 
1059.427058  	41.199817 
1060.858716  	40.609246 
1062.290374  	40.234548 
1063.722032  	40.148705 
1065.153690  	40.120027 
1066.585348  	40.249207 
1068.017007  	40.599146 
1069.448665  	40.817394 
1070.880323  	41.106424 
1072.311981  	41.453723 
1073.743639  	41.725143 
1075.175298  	42.218230 
1076.606956  	42.765777 
1078.038614  	43.452120 
1079.470272  	44.619354 
1080.901930  	46.117502 
1082.333589  	48.090571 
1083.765247  	50.526188 
1085.196905  	53.031035 
1086.628563  	55.309918 
1088.060221  	56.924583 
1089.491879  	57.779693 
1090.923538  	58.062374 
1092.355196  	57.833792 
1093.786854  	57.457225 
1095.218512  	57.069980 
1096.650170  	56.527350 
1098.081829  	56.093358 
1099.513487  	55.714090 
1100.945145  	55.277513 
1102.376803  	55.021642 
1103.808461  	54.849253 
1105.240120  	54.860080 
1106.671778  	55.196352 
1108.103436  	55.673171 
1109.535094  	56.409445 
1110.966752  	57.367746 
1112.398410  	58.522262 
1113.830069  	60.103413 
1115.261727  	61.888296 
1116.693385  	63.732129 
1118.125043  	65.655796 
1119.556701  	67.427727 
1120.988360  	69.096169 
1122.420018  	70.865746 
1123.851676  	72.749361 
1125.283334  	74.760633 
1126.714992  	76.840914 
1128.146650  	78.872202 
1129.578309  	80.799031 
1131.009967  	82.596489 
1132.441625  	84.249866 
1133.873283  	85.721876 
1135.304941  	86.924305 
1136.736600  	87.936635 
1138.168258  	88.903765 
1139.599916  	89.682429 
1141.031574  	90.253718 
1142.463232  	90.768471 
1143.894891  	91.158392 
1145.326549  	91.483314 
1146.758207  	91.816466 
1148.189865  	92.042358 
1149.621523  	92.204853 
1151.053181  	92.318674 
1152.484840  	92.341299 
1153.916498  	92.302928 
1155.348156  	92.152261 
1156.779814  	91.928213 
1158.211472  	91.642729 
1159.643131  	91.242896 
1161.074789  	90.826400 
1162.506447  	90.353009 
1163.938105  	89.752535 
1165.369763  	89.096718 
1166.801421  	88.384567 
1168.233080  	87.605283 
1169.664738  	86.655030 
1171.096396  	85.479636 
1172.528054  	84.192361 
1173.959712  	82.713593 
1175.391371  	80.978134 
1176.823029  	78.996020 
1178.254687  	76.773156 
1179.686345  	74.602500 
1181.118003  	72.775141 
1182.549662  	71.419991 
1183.981320  	70.325063 
1185.412978  	69.045588 
1186.844636  	67.509281 
1188.276294  	65.657554 
1189.707952  	63.480361 
1191.139611  	61.250492 
1192.571269  	58.901689 
1194.002927  	56.434729 
1195.434585  	53.942665 
1196.866243  	51.253102 
1198.297902  	48.536115 
1199.729560  	45.874655 
1201.161218  	43.457291 
1202.592876  	41.805406 
1204.024534  	40.789527 
1205.456193  	40.392664 
1206.887851  	40.528250 
1208.319509  	40.554286 
1209.751167  	40.329949 
1211.182825  	39.609946 
1212.614483  	38.231967 
1214.046142  	36.751217 
1215.477800  	35.344808 
1216.909458  	34.318665 
1218.341116  	33.976982 
1219.772774  	33.970612 
1221.204433  	34.451475 
1222.636091  	35.312395 
1224.067749  	36.225142 
1225.499407  	37.437709 
1226.931065  	38.707898 
1228.362723  	40.002671 
1229.794382  	41.570217 
1231.226040  	43.137728 
1232.657698  	44.854279 
1234.089356  	46.782899 
1235.521014  	48.782588 
1236.952673  	51.101094 
1238.384331  	53.526349 
1239.815989  	55.961570 
1241.247647  	58.555999 
1242.679305  	60.983163 
1244.110964  	63.157367 
1245.542622  	64.991101 
1246.974280  	66.171555 
1248.405938  	66.742976 
1249.837596  	66.829405 
1251.269254  	66.861929 
1252.700913  	67.536360 
1254.132571  	68.919731 
1255.564229  	70.990993 
1256.995887  	73.672941 
1258.427545  	76.485158 
1259.859204  	79.287618 
1261.290862  	81.989693 
1262.722520  	84.299559 
1264.154178  	86.192663 
1265.585836  	87.663540 
1267.017495  	88.638896 
1268.449153  	89.258578 
1269.880811  	89.573703 
1271.312469  	89.599039 
1272.744127  	89.539365 
1274.175785  	89.437142 
1275.607444  	89.375174 
1277.039102  	89.498810 
1278.470760  	89.707542 
1279.902418  	89.995671 
1281.334076  	90.368435 
1282.765735  	90.664165 
1284.197393  	90.835317 
1285.629051  	90.829951 
1287.060709  	90.603239 
1288.492367  	90.114259 
1289.924025  	89.238307 
1291.355684  	88.073913 
1292.787342  	86.631590 
1294.219000  	84.819398 
1295.650658  	82.690242 
1297.082316  	80.131234 
1298.513975  	77.225227 
1299.945633  	74.043120 
1301.377291  	70.601682 
1302.808949  	67.321733 
1304.240607  	64.279758 
1305.672266  	61.746068 
1307.103924  	60.121852 
1308.535582  	59.333340 
1309.967240  	59.600106 
1311.398898  	60.682192 
1312.830556  	62.189355 
1314.262215  	63.938314 
1315.693873  	65.464520 
1317.125531  	66.975371 
1318.557189  	69.052406 
1319.988847  	71.979164 
1321.420506  	75.632116 
1322.852164  	79.346842 
1324.283822  	82.756090 
1325.715480  	85.700428 
1327.147138  	88.157508 
1328.578796  	90.167480 
1330.010455  	91.629020 
1331.442113  	92.703632 
1332.873771  	93.446025 
1334.305429  	93.873659 
1335.737087  	94.074147 
1337.168746  	94.023699 
1338.600404  	93.930879 
1340.032062  	93.880610 
1341.463720  	93.856002 
1342.895378  	93.942770 
1344.327037  	94.012206 
1345.758695  	94.021231 
1347.190353  	93.914114 
1348.622011  	93.558672 
1350.053669  	93.137462 
1351.485327  	92.646840 
1352.916986  	92.010365 
1354.348644  	91.388112 
1355.780302  	90.775348 
1357.211960  	90.266332 
1358.643618  	89.860719 
1360.075277  	89.415976 
1361.506935  	89.034095 
1362.938593  	88.732210 
1364.370251  	88.522814 
1365.801909  	88.408280 
1367.233568  	88.300893 
1368.665226  	88.324985 
1370.096884  	88.499089 
1371.528542  	88.699849 
1372.960200  	88.983370 
1374.391858  	89.437345 
1375.823517  	89.999287 
1377.255175  	90.506673 
1378.686833  	91.018219 
1380.118491  	91.586853 
1381.550149  	92.098018 
1382.981808  	92.453815 
1384.413466  	92.618551 
1385.845124  	92.625179 
1387.276782  	92.514479 
1388.708440  	92.456730 
1390.140098  	92.395034 
1391.571757  	92.305775 
1393.003415  	92.229031 
1394.435073  	91.967078 
1395.866731  	91.507770 
1397.298389  	90.937214 
1398.730048  	90.047983 
1400.161706  	88.886952 
1401.593364  	87.436887 
1403.025022  	85.458713 
1404.456680  	82.705621 
1405.888339  	78.771682 
1407.319997  	74.069778 
1408.751655  	68.964082 
1410.183313  	63.468783 
1411.614971  	59.393978 
1413.046629  	58.138592 
1414.478288  	59.480642 
1415.909946  	63.942308 
1417.341604  	69.646504 
1418.773262  	76.238923 
1420.204920  	84.621319 
1421.636579  	89.049992 
1423.068237  	91.507324 
1424.499895  	93.691390 
1425.931553  	93.977986 
1427.363211  	93.550477 
1428.794870  	92.576097 
1430.226528  	90.843515 
1431.658186  	89.577974 
1433.089844  	88.550849 
1434.521502  	87.880889 
1435.953160  	87.873388 
1437.384819  	88.523920 
1438.816477  	89.246711 
1440.248135  	89.718304 
1441.679793  	89.811984 
1443.111451  	89.495792 
1444.543110  	88.762688 
1445.974768  	88.055944 
1447.406426  	87.822420 
1448.838084  	87.828625 
1450.269742  	87.953417 
1451.701400  	87.993637 
1453.133059  	87.738600 
1454.564717  	87.492344 
1455.996375  	87.251485 
1457.428033  	87.423372 
1458.859691  	88.094825 
1460.291350  	88.252886 
1461.723008  	88.104082 
1463.154666  	87.667520 
1464.586324  	86.810429 
1466.017982  	86.056443 
1467.449641  	85.406732 
1468.881299  	84.671189 
1470.312957  	84.077961 
1471.744615  	83.262585 
1473.176273  	82.329188 
1474.607931  	81.572397 
1476.039590  	80.502935 
1477.471248  	79.980501 
1478.902906  	80.174826 
1480.334564  	80.870131 
1481.766222  	82.315161 
1483.197881  	83.386364 
1484.629539  	84.205879 
1486.061197  	84.887925 
1487.492855  	85.007605 
1488.924513  	85.343940 
1490.356172  	85.197595 
1491.787830  	84.491042 
1493.219488  	83.913531 
1494.651146  	82.543601 
1496.082804  	80.889179 
1497.514462  	79.265583 
1498.946121  	76.780629 
1500.377779  	74.731276 
1501.809437  	72.361299 
1503.241095  	69.391539 
1504.672753  	67.122428 
1506.104412  	63.931192 
1507.536070  	58.679879 
1508.967728  	55.824606 
1510.399386  	52.507218 
1511.831044  	49.784107 
1513.262702  	47.828938 
1514.694361  	45.996220 
1516.126019  	45.487768 
1517.557677  	44.540171 
1518.989335  	43.230660 
1520.420993  	42.994213 
1521.852652  	40.978727 
1523.284310  	40.068188 
1524.715968  	40.148107 
1526.147626  	39.492639 
1527.579284  	40.288033 
1529.010943  	40.850252 
1530.442601  	41.436665 
1531.874259  	43.019027 
1533.305917  	44.133642 
1534.737575  	46.556607 
1536.169233  	48.786068 
1537.600892  	50.101459 
1539.032550  	53.208707 
1540.464208  	56.926036 
1541.895866  	60.041210 
1543.327524  	63.954786 
1544.759183  	66.975453 
1546.190841  	71.169165 
1547.622499  	74.723447 
1549.054157  	77.460801 
1550.485815  	81.757799 
1551.917473  	84.988542 
1553.349132  	87.336917 
1554.780790  	90.737514 
1556.212448  	92.858524 
1557.644106  	94.060591 
1559.075764  	96.295234 
1560.507423  	98.534274 
1561.939081  	99.577279 
1563.370739  	100.255481 
1564.802397  	100.882293 
1566.234055  	101.571901 
1567.665714  	101.845711 
1569.097372  	101.996480 
1570.529030  	102.342848 
1571.960688  	102.474500 
1573.392346  	102.376269 
1574.824004  	102.170367 
1576.255663  	101.786862 
1577.687321  	101.265728 
1579.118979  	100.748638 
1580.550637  	99.854523 
1581.982295  	98.499709 
1583.413954  	96.822187 
1584.845612  	94.431231 
1586.277270  	91.550884 
1587.708928  	88.117846 
1589.140586  	83.837440 
1590.572245  	79.744868 
1592.003903  	75.687843 
1593.435561  	72.251729 
1594.867219  	70.390742 
1596.298877  	69.206498 
1597.730535  	69.557592 
1599.162194  	70.975424 
1600.593852  	72.641264 
1602.025510  	75.174938 
1603.457168  	77.546137 
1604.888826  	79.645772 
1606.320485  	81.582034 
1607.752143  	82.701336 
1609.183801  	83.607455 
1610.615459  	84.113757 
1612.047117  	84.338468 
1613.478775  	85.238655 
1614.910434  	86.040590 
1616.342092  	87.594142 
1617.773750  	90.877543 
1619.205408  	92.992654 
1620.637066  	95.069121 
1622.068725  	97.025602 
1623.500383  	98.291859 
1624.932041  	99.765590 
1626.363699  	100.405210 
1627.795357  	100.630906 
1629.227016  	101.329481 
1630.658674  	101.398702 
1632.090332  	101.430116 
1633.521990  	101.664211 
1634.953648  	101.298685 
1636.385306  	101.492834 
1637.816965  	101.708753 
1639.248623  	101.481230 
1640.680281  	101.718910 
1642.111939  	101.556515 
1643.543597  	101.275369 
1644.975256  	101.310301 
1646.406914  	100.719601 
1647.838572  	100.736305 
1649.270230  	100.821334 
1650.701888  	100.192462 
1652.133547  	100.071966 
1653.565205  	99.477019 
1654.996863  	98.874855 
1656.428521  	98.990392 
1657.860179  	98.281818 
1659.291837  	97.757632 
1660.723496  	97.418375 
1662.155154  	96.347882 
1663.586812  	95.870246 
1665.018470  	95.186977 
1666.450128  	94.116440 
1667.881787  	93.565664 
1669.313445  	92.157634 
1670.745103  	90.920873 
1672.176761  	90.181396 
1673.608419  	88.340082 
1675.040077  	86.898229 
1676.471736  	84.961400 
1677.903394  	82.618295 
1679.335052  	81.096864 
1680.766710  	78.366367 
1682.198368  	75.783456 
1683.630027  	74.362885 
1685.061685  	69.649146 
1686.493343  	67.096479 
1687.925001  	64.945625 
1689.356659  	61.185155 
1690.788318  	58.368440 
1692.219976  	55.269333 
1693.651634  	52.054787 
1695.083292  	50.259027 
1696.514950  	47.064846 
1697.946608  	45.202777 
1699.378267  	45.503435 
1700.809925  	45.825552 
1702.241583  	47.235568 
1703.673241  	49.080626 
1705.104899  	51.291067 
1706.536558  	54.432657 
1707.968216  	57.225799 
1709.399874  	59.513720 
1710.831532  	61.990841 
1712.263190  	64.284292 
1713.694849  	66.037395 
1715.126507  	68.051319 
1716.558165  	69.786309 
1717.989823  	71.053036 
1719.421481  	72.744120 
1720.853139  	73.373004 
1722.284798  	73.497001 
1723.716456  	73.607143 
1725.148114  	73.211493 
1726.579772  	72.922658 
1728.011430  	73.017123 
1729.443089  	73.344106 
1730.874747  	74.595543 
1732.306405  	76.051496 
1733.738063  	77.933622 
1735.169721  	82.323156 
1736.601379  	84.840690 
1738.033038  	87.109280 
1739.464696  	90.612999 
1740.896354  	93.459419 
1742.328012  	96.042818 
1743.759670  	98.526257 
1745.191329  	100.144779 
1746.622987  	101.986173 
1748.054645  	103.137014 
1749.486303  	103.988034 
1750.917961  	105.290953 
1752.349620  	105.580032 
1753.781278  	106.214593 
1755.212936  	106.750851 
1756.644594  	106.645456 
1758.076252  	107.255673 
1759.507910  	107.379377 
1760.939569  	107.160112 
1762.371227  	107.620212 
1763.802885  	107.575755 
1765.234543  	107.686627 
1766.666201  	107.837913 
1768.097860  	107.506732 
1769.529518  	107.872063 
1770.961176  	107.842969 
1772.392834  	107.437918 
1773.824492  	108.021845 
1775.256150  	107.845708 
1776.687809  	107.803366 
1778.119467  	108.110423 
1779.551125  	107.796176 
1780.982783  	107.970573 
1782.414441  	108.177193 
1783.846100  	107.922977 
1785.277758  	108.145759 
1786.709416  	108.063321 
1788.141074  	108.004874 
1789.572732  	108.230318 
1791.004391  	107.889202 
1792.436049  	108.035187 
1793.867707  	108.361669 
1795.299365  	108.116209 
1796.731023  	108.379224 
1798.162681  	108.383661 
1799.594340  	108.217484 
1801.025998  	108.553250 
1802.457656  	108.410748 
1803.889314  	108.435380 
1805.320972  	108.631313 
1806.752631  	108.419969 
1808.184289  	108.582097 
1809.615947  	108.648365 
1811.047605  	108.520389 
1812.479263  	108.778114 
1813.910922  	108.666632 
1815.342580  	108.718368 
1816.774238  	108.973769 
1818.205896  	108.770658 
1819.637554  	108.965520 
1821.069212  	109.059877 
1822.500871  	108.825184 
1823.932529  	109.031645 
1825.364187  	108.954060 
1826.795845  	109.014682 
1828.227503  	109.310474 
1829.659162  	108.981365 
1831.090820  	109.124137 
1832.522478  	109.361973 
1833.954136  	109.213486 
1835.385794  	109.471839 
1836.817452  	109.431016 
1838.249111  	109.346858 
1839.680769  	109.605122 
1841.112427  	109.371643 
1842.544085  	109.414419 
1843.975743  	109.667679 
1845.407402  	109.499126 
1846.839060  	109.832804 
1848.270718  	109.809624 
1849.702376  	109.599578 
1851.134034  	109.773080 
1852.565693  	109.548001 
1853.997351  	109.662754 
1855.429009  	109.935807 
1856.860667  	109.647752 
1858.292325  	109.785251 
1859.723983  	109.750119 
1861.155642  	109.543776 
1862.587300  	109.947761 
1864.018958  	109.861938 
1865.450616  	109.728304 
1866.882274  	109.821373 
1868.313933  	109.414859 
1869.745591  	109.673511 
1871.177249  	109.795161 
1872.608907  	109.456031 
1874.040565  	109.767163 
1875.472224  	109.725593 
1876.903882  	109.521925 
1878.335540  	109.763603 
1879.767198  	109.591298 
1881.198856  	109.651415 
1882.630514  	109.719908 
1884.062173  	109.412293 
1885.493831  	109.621426 
1886.925489  	109.520927 
1888.357147  	109.308768 
1889.788805  	109.576547 
1891.220464  	109.239419 
1892.652122  	109.180269 
1894.083780  	109.373304 
1895.515438  	109.039948 
1896.947096  	109.139536 
1898.378754  	109.165302 
1899.810413  	109.019862 
1901.242071  	109.168171 
1902.673729  	108.800964 
1904.105387  	108.721797 
1905.537045  	108.967475 
1906.968704  	108.800936 
1908.400362  	109.088225 
1909.832020  	109.113448 
1911.263678  	108.904204 
1912.695336  	109.295662 
1914.126995  	109.174792 
1915.558653  	109.275403 
1916.990311  	109.694132 
1918.421969  	109.322560 
1919.853627  	109.615317 
1921.285285  	109.757897 
1922.716944  	109.317786 
1924.148602  	109.781571 
1925.580260  	109.669704 
1927.011918  	109.424455 
1928.443576  	110.037921 
1929.875235  	109.960109 
1931.306893  	109.976448 
1932.738551  	110.080672 
1934.170209  	109.733489 
1935.601867  	110.238227 
1937.033525  	110.189107 
1938.465184  	109.711140 
1939.896842  	110.138453 
1941.328500  	109.964777 
1942.760158  	109.934418 
1944.191816  	110.126697 
1945.623475  	109.641417 
1947.055133  	110.054777 
1948.486791  	110.051203 
1949.918449  	109.586634 
1951.350107  	110.070485 
1952.781766  	109.717849 
1954.213424  	109.601641 
1955.645082  	110.059329 
1957.076740  	109.605029 
1958.508398  	110.097769 
1959.940056  	110.015820 
1961.371715  	109.133351 
1962.803373  	110.027531 
1964.235031  	109.820312 
1965.666689  	109.392997 
1967.098347  	110.316773 
1968.530006  	109.525133 
1969.961664  	109.228870 
1971.393322  	109.634725 
1972.824980  	109.492539 
1974.256638  	110.388914 
1975.688297  	109.610523 
1977.119955  	108.681392 
1978.551613  	110.111788 
1979.983271  	110.219072 
1981.414929  	110.229436 
1982.846587  	110.261881 
1984.278246  	109.315017 
1985.709904  	109.820183 
1987.141562  	110.081253 
1988.573220  	109.707628 
1990.004878  	110.122924 
1991.436537  	109.479607 
1992.868195  	109.417134 
1994.299853  	110.070735 
1995.731511  	109.612239 
1997.163169  	109.949827 
1998.594827  	110.003998 
2000.026486  	109.659730 
2001.458144  	110.398293 
2002.889802  	109.767103 
2004.321460  	109.265503 
2005.753118  	109.990254 
2007.184777  	109.479922 
2008.616435  	109.608408 
2010.048093  	109.741846 
2011.479751  	109.285559 
2012.911409  	110.274069 
2014.343068  	110.173008 
2015.774726  	109.603076 
2017.206384  	109.839081 
2018.638042  	109.062150 
2020.069700  	109.489022 
2021.501358  	109.776032 
2022.933017  	108.725341 
2024.364675  	109.349798 
2025.796333  	109.262856 
2027.227991  	108.786846 
2028.659649  	109.915057 
2030.091308  	109.593978 
2031.522966  	109.202841 
2032.954624  	109.236046 
2034.386282  	108.628182 
2035.817940  	109.520401 
2037.249599  	109.569198 
2038.681257  	108.733576 
2040.112915  	109.106299 
2041.544573  	108.709907 
2042.976231  	108.975837 
2044.407889  	109.826041 
2045.839548  	109.198660 
2047.271206  	109.380863 
2048.702864  	109.642464 
2050.134522  	109.379795 
2051.566180  	109.930883 
2052.997839  	109.520453 
2054.429497  	109.111692 
2055.861155  	109.663465 
2057.292813  	109.650863 
2058.724471  	110.009455 
2060.156129  	110.125705 
2061.587788  	109.520478 
2063.019446  	109.954290 
2064.451104  	110.114834 
2065.882762  	109.820916 
2067.314420  	110.144277 
2068.746079  	109.991852 
2070.177737  	109.957111 
2071.609395  	109.936386 
2073.041053  	109.502546 
2074.472711  	109.946840 
2075.904370  	110.205981 
2077.336028  	109.954193 
2078.767686  	110.321828 
2080.199344  	110.370005 
2081.631002  	110.171089 
2083.062660  	110.082828 
2084.494319  	109.876713 
2085.925977  	110.041838 
2087.357635  	110.025448 
2088.789293  	110.000419 
2090.220951  	110.238255 
2091.652610  	109.833295 
2093.084268  	109.783887 
2094.515926  	110.121880 
2095.947584  	109.948915 
2097.379242  	110.303492 
2098.810901  	110.379017 
2100.242559  	109.862267 
2101.674217  	109.979846 
2103.105875  	109.849298 
2104.537533  	109.907868 
2105.969191  	110.487684 
2107.400850  	110.204833 
2108.832508  	109.966699 
2110.264166  	110.013868 
2111.695824  	109.817027 
2113.127482  	109.986185 
2114.559141  	109.889387 
2115.990799  	109.890314 
2117.422457  	110.302319 
2118.854115  	109.997795 
2120.285773  	109.947847 
2121.717431  	110.170845 
2123.149090  	109.827827 
2124.580748  	110.072412 
2126.012406  	110.160938 
2127.444064  	109.728963 
2128.875722  	109.969931 
2130.307381  	109.889441 
2131.739039  	109.633999 
2133.170697  	109.758898 
2134.602355  	109.536951 
2136.034013  	109.771999 
2137.465672  	109.748492 
2138.897330  	109.325842 
2140.328988  	109.990896 
2141.760646  	110.004198 
2143.192304  	109.333204 
2144.623962  	109.307078 
2146.055621  	109.120870 
2147.487279  	109.530176 
2148.918937  	109.671655 
2150.350595  	108.857303 
2151.782253  	108.946335 
2153.213912  	108.691343 
2154.645570  	108.510451 
2156.077228  	109.429104 
2157.508886  	108.897174 
2158.940544  	108.309546 
2160.372202  	108.335431 
2161.803861  	108.061713 
2163.235519  	109.171864 
2164.667177  	109.508901 
2166.098835  	108.855321 
2167.530493  	108.991629 
2168.962152  	108.875969 
2170.393810  	109.299182 
2171.825468  	109.532465 
2173.257126  	108.926616 
2174.688784  	109.457993 
2176.120443  	109.303378 
2177.552101  	108.692166 
2178.983759  	109.538420 
2180.415417  	109.397292 
2181.847075  	109.067542 
2183.278733  	109.215903 
2184.710392  	108.397485 
2186.142050  	108.898155 
2187.573708  	109.615098 
2189.005366  	108.972227 
2190.437024  	109.250782 
2191.868683  	109.439887 
2193.300341  	109.076729 
2194.731999  	109.155914 
2196.163657  	108.892726 
2197.595315  	109.172094 
2199.026974  	109.455388 
2200.458632  	108.871900 
2201.890290  	109.080124 
2203.321948  	109.382959 
2204.753606  	109.398522 
2206.185264  	109.763142 
2207.616923  	109.440359 
2209.048581  	109.351636 
2210.480239  	109.820107 
2211.911897  	109.756771 
2213.343555  	109.757088 
2214.775214  	109.508740 
2216.206872  	109.298603 
2217.638530  	109.748047 
2219.070188  	109.724797 
2220.501846  	109.718905 
2221.933504  	109.892126 
2223.365163  	109.632890 
2224.796821  	109.762641 
2226.228479  	109.522740 
2227.660137  	109.055801 
2229.091795  	109.552137 
2230.523454  	109.750951 
2231.955112  	109.673407 
2233.386770  	109.805863 
2234.818428  	109.588955 
2236.250086  	109.897677 
2237.681745  	110.113580 
2239.113403  	109.585537 
2240.545061  	109.600181 
2241.976719  	109.703064 
2243.408377  	109.604459 
2244.840035  	109.735504 
2246.271694  	109.688750 
2247.703352  	109.866783 
2249.135010  	109.904260 
2250.566668  	109.530227 
2251.998326  	109.647193 
2253.429985  	109.630545 
2254.861643  	109.450612 
2256.293301  	109.621069 
2257.724959  	109.368080 
2259.156617  	109.272632 
2260.588276  	109.585561 
2262.019934  	109.514430 
2263.451592  	109.497320 
2264.883250  	109.490579 
2266.314908  	109.489015 
2267.746566  	109.823053 
2269.178225  	109.782967 
2270.609883  	109.549145 
2272.041541  	109.458540 
2273.473199  	109.319311 
2274.904857  	109.552650 
2276.336516  	109.715360 
2277.768174  	109.593362 
2279.199832  	109.742457 
2280.631490  	109.711892 
2282.063148  	109.575435 
2283.494806  	109.676204 
2284.926465  	109.681941 
2286.358123  	109.695512 
2287.789781  	109.565190 
2289.221439  	109.383100 
2290.653097  	109.506084 
2292.084756  	109.380964 
2293.516414  	109.165859 
2294.948072  	109.241492 
2296.379730  	109.128448 
2297.811388  	109.031790 
2299.243047  	109.007876 
2300.674705  	108.745035 
2302.106363  	108.594846 
2303.538021  	108.514159 
2304.969679  	108.422352 
2306.401337  	108.360445 
2307.832996  	108.046952 
2309.264654  	107.848570 
2310.696312  	107.791182 
2312.127970  	107.504897 
2313.559628  	107.436530 
2314.991287  	107.474576 
2316.422945  	107.278972 
2317.854603  	107.060901 
2319.286261  	106.665218 
2320.717919  	106.286010 
2322.149577  	106.131067 
2323.581236  	105.986886 
2325.012894  	106.027328 
2326.444552  	105.952029 
2327.876210  	105.544713 
2329.307868  	105.256957 
2330.739527  	105.062738 
2332.171185  	105.033071 
2333.602843  	105.256723 
2335.034501  	105.203335 
2336.466159  	104.950727 
2337.897818  	104.778965 
2339.329476  	104.669795 
2340.761134  	104.654086 
2342.192792  	104.544807 
2343.624450  	104.508375 
2345.056108  	104.700940 
2346.487767  	105.227322 
2347.919425  	106.225404 
2349.351083  	106.645761 
2350.782741  	105.916429 
2352.214399  	104.980174 
2353.646058  	104.460337 
2355.077716  	103.936646 
2356.509374  	103.516559 
2357.941032  	103.106187 
2359.372690  	102.883264 
2360.804349  	103.089383 
2362.236007  	103.135442 
2363.667665  	103.249597 
2365.099323  	103.598052 
2366.530981  	103.848117 
2367.962639  	104.222430 
2369.394298  	104.622474 
2370.825956  	105.075215 
2372.257614  	105.621503 
2373.689272  	105.988210 
2375.120930  	106.478381 
2376.552589  	106.969076 
2377.984247  	107.245755 
2379.415905  	107.735088 
2380.847563  	108.273937 
2382.279221  	108.688766 
2383.710879  	109.110153 
2385.142538  	109.338336 
2386.574196  	109.514765 
2388.005854  	109.658636 
2389.437512  	109.551869 
2390.869170  	109.554513 
2392.300829  	109.687604 
2393.732487  	109.693576 
2395.164145  	109.717110 
2396.595803  	109.718340 
2398.027461  	109.702777 
2399.459120  	109.736353 
2400.890778  	109.737486 
2402.322436  	109.750947 
2403.754094  	109.641633 
2405.185752  	109.524564 
2406.617410  	109.655430 
2408.049069  	109.708560 
2409.480727  	109.657614 
2410.912385  	109.659479 
2412.344043  	109.592307 
2413.775701  	109.616659 
2415.207360  	109.617570 
2416.639018  	109.509337 
2418.070676  	109.625766 
2419.502334  	109.740493 
2420.933992  	109.676956 
2422.365651  	109.645087 
2423.797309  	109.599803 
2425.228967  	109.603174 
2426.660625  	109.637259 
2428.092283  	109.653210 
2429.523941  	109.728526 
2430.955600  	109.656344 
2432.387258  	109.588430 
2433.818916  	109.701845 
2435.250574  	109.690431 
2436.682232  	109.644782 
2438.113891  	109.623526 
2439.545549  	109.571157 
2440.977207  	109.636177 
2442.408865  	109.564617 
2443.840523  	109.474348 
2445.272181  	109.595629 
2446.703840  	109.524610 
2448.135498  	109.456627 
2449.567156  	109.586732 
2450.998814  	109.589465 
2452.430472  	109.611284 
2453.862131  	109.589449 
2455.293789  	109.470222 
2456.725447  	109.533315 
2458.157105  	109.535489 
2459.588763  	109.463457 
2461.020422  	109.458852 
2462.452080  	109.367367 
2463.883738  	109.424100 
2465.315396  	109.501659 
2466.747054  	109.358647 
2468.178712  	109.360230 
2469.610371  	109.391977 
2471.042029  	109.287761 
2472.473687  	109.272541 
2473.905345  	109.276761 
2475.337003  	109.285992 
2476.768662  	109.234422 
2478.200320  	109.125335 
2479.631978  	109.222740 
2481.063636  	109.306649 
2482.495294  	109.251218 
2483.926953  	109.229303 
2485.358611  	109.178102 
2486.790269  	109.241882 
2488.221927  	109.332430 
2489.653585  	109.279970 
2491.085243  	109.364058 
2492.516902  	109.416395 
2493.948560  	109.317521 
2495.380218  	109.279858 
2496.811876  	109.178345 
2498.243534  	109.206002 
2499.675193  	109.378251 
2501.106851  	109.337012 
2502.538509  	109.350606 
2503.970167  	109.452409 
2505.401825  	109.391403 
2506.833483  	109.331674 
2508.265142  	109.282230 
2509.696800  	109.286852 
2511.128458  	109.324548 
2512.560116  	109.256506 
2513.991774  	109.297355 
2515.423433  	109.349740 
2516.855091  	109.321938 
2518.286749  	109.404163 
2519.718407  	109.389824 
2521.150065  	109.392030 
2522.581724  	109.496349 
2524.013382  	109.359408 
2525.445040  	109.266816 
2526.876698  	109.354085 
2528.308356  	109.393890 
2529.740014  	109.456141 
2531.171673  	109.391989 
2532.603331  	109.353946 
2534.034989  	109.456607 
2535.466647  	109.352730 
2536.898305  	109.375826 
2538.329964  	109.507651 
2539.761622  	109.311809 
2541.193280  	109.264003 
2542.624938  	109.341646 
2544.056596  	109.199532 
2545.488254  	109.168853 
2546.919913  	109.211376 
2548.351571  	109.247594 
2549.783229  	109.295307 
2551.214887  	109.210300 
2552.646545  	109.229631 
2554.078204  	109.240209 
2555.509862  	109.074168 
2556.941520  	109.041862 
2558.373178  	109.022861 
2559.804836  	109.016266 
2561.236495  	109.126580 
2562.668153  	109.091265 
2564.099811  	109.083373 
2565.531469  	109.098222 
2566.963127  	108.963756 
2568.394785  	108.964522 
2569.826444  	108.966579 
2571.258102  	108.934121 
2572.689760  	109.060597 
2574.121418  	109.039933 
2575.553076  	108.968126 
2576.984735  	109.002578 
2578.416393  	108.981657 
2579.848051  	109.077389 
2581.279709  	109.105049 
2582.711367  	108.967164 
2584.143026  	109.045321 
2585.574684  	109.116499 
2587.006342  	109.000458 
2588.438000  	108.888518 
2589.869658  	108.803359 
2591.301316  	108.855450 
2592.732975  	108.876114 
2594.164633  	108.791931 
2595.596291  	108.886301 
2597.027949  	108.889721 
2598.459607  	108.745569 
2599.891266  	108.840659 
2601.322924  	108.968904 
2602.754582  	108.938963 
2604.186240  	108.885458 
2605.617898  	108.835113 
2607.049556  	108.797689 
2608.481215  	108.734351 
2609.912873  	108.737563 
2611.344531  	108.842686 
2612.776189  	108.859866 
2614.207847  	108.861523 
2615.639506  	108.887800 
2617.071164  	108.828439 
2618.502822  	108.756185 
2619.934480  	108.675076 
2621.366138  	108.645549 
2622.797797  	108.711452 
2624.229455  	108.734682 
2625.661113  	108.765213 
2627.092771  	108.773629 
2628.524429  	108.698127 
2629.956087  	108.678817 
2631.387746  	108.627478 
2632.819404  	108.580420 
2634.251062  	108.685143 
2635.682720  	108.722598 
2637.114378  	108.659849 
2638.546037  	108.604458 
2639.977695  	108.553582 
2641.409353  	108.602508 
2642.841011  	108.612966 
2644.272669  	108.520194 
2645.704328  	108.519217 
2647.135986  	108.520118 
2648.567644  	108.484842 
2649.999302  	108.497186 
2651.430960  	108.487916 
2652.862618  	108.494099 
2654.294277  	108.486747 
2655.725935  	108.436865 
2657.157593  	108.434039 
2658.589251  	108.377266 
2660.020909  	108.286624 
2661.452568  	108.253948 
2662.884226  	108.195956 
2664.315884  	108.184928 
2665.747542  	108.191656 
2667.179200  	108.115485 
2668.610858  	108.094106 
2670.042517  	108.085147 
2671.474175  	108.041008 
2672.905833  	108.033895 
2674.337491  	107.960304 
2675.769149  	107.893886 
2677.200808  	107.902688 
2678.632466  	107.859339 
2680.064124  	107.815700 
2681.495782  	107.745763 
2682.927440  	107.647295 
2684.359099  	107.655645 
2685.790757  	107.621920 
2687.222415  	107.523031 
2688.654073  	107.505286 
2690.085731  	107.460314 
2691.517389  	107.386059 
2692.949048  	107.345498 
2694.380706  	107.294533 
2695.812364  	107.251322 
2697.244022  	107.172961 
2698.675680  	107.081733 
2700.107339  	107.036700 
2701.538997  	106.969778 
2702.970655  	106.914223 
2704.402313  	106.877046 
2705.833971  	106.823515 
2707.265630  	106.791688 
2708.697288  	106.718680 
2710.128946  	106.664026 
2711.560604  	106.672154 
2712.992262  	106.579038 
2714.423920  	106.470650 
2715.855579  	106.433382 
2717.287237  	106.368624 
2718.718895  	106.327832 
2720.150553  	106.279022 
2721.582211  	106.207458 
2723.013870  	106.190438 
2724.445528  	106.101954 
2725.877186  	105.958190 
2727.308844  	105.868737 
2728.740502  	105.777689 
2730.172160  	105.719721 
2731.603819  	105.681505 
2733.035477  	105.619051 
2734.467135  	105.572334 
2735.898793  	105.493213 
2737.330451  	105.445360 
2738.762110  	105.448716 
2740.193768  	105.368393 
2741.625426  	105.290709 
2743.057084  	105.278443 
2744.488742  	105.290638 
2745.920401  	105.318358 
2747.352059  	105.251646 
2748.783717  	105.195215 
2750.215375  	105.235962 
2751.647033  	105.173711 
2753.078691  	105.100444 
2754.510350  	105.111059 
2755.942008  	105.059738 
2757.373666  	105.016281 
2758.805324  	104.986861 
2760.236982  	104.913152 
2761.668641  	104.880263 
2763.100299  	104.842523 
2764.531957  	104.795233 
2765.963615  	104.775396 
2767.395273  	104.727669 
2768.826931  	104.670929 
2770.258590  	104.563414 
2771.690248  	104.437346 
2773.121906  	104.397720 
2774.553564  	104.318997 
2775.985222  	104.180349 
2777.416881  	104.048446 
2778.848539  	103.877269 
2780.280197  	103.726155 
2781.711855  	103.538449 
2783.143513  	103.256781 
2784.575172  	103.017743 
2786.006830  	102.759502 
2787.438488  	102.426604 
2788.870146  	102.118122 
2790.301804  	101.836455 
2791.733462  	101.585041 
2793.165121  	101.320475 
2794.596779  	101.072212 
2796.028437  	100.970708 
2797.460095  	100.931232 
2798.891753  	100.940941 
2800.323412  	101.056630 
2801.755070  	101.174563 
2803.186728  	101.353949 
2804.618386  	101.574440 
2806.050044  	101.710887 
2807.481703  	101.885726 
2808.913361  	102.064662 
2810.345019  	102.188222 
2811.776677  	102.330729 
2813.208335  	102.355679 
2814.639993  	102.319359 
2816.071652  	102.305061 
2817.503310  	102.122098 
2818.934968  	101.870929 
2820.366626  	101.611554 
2821.798284  	101.203068 
2823.229943  	100.790749 
2824.661601  	100.409039 
2826.093259  	99.917144 
2827.524917  	99.300204 
2828.956575  	98.555980 
2830.388233  	97.790714 
2831.819892  	97.058184 
2833.251550  	96.256767 
2834.683208  	95.382630 
2836.114866  	94.440031 
2837.546524  	93.447105 
2838.978183  	92.449554 
2840.409841  	91.417642 
2841.841499  	90.396636 
2843.273157  	89.413912 
2844.704815  	88.425046 
2846.136474  	87.474071 
2847.568132  	86.614365 
2848.999790  	85.912527 
2850.431448  	85.360348 
2851.863106  	84.844516 
2853.294764  	84.460478 
2854.726423  	84.275853 
2856.158081  	84.135066 
2857.589739  	84.083358 
2859.021397  	84.177196 
2860.453055  	84.287916 
2861.884714  	84.447488 
2863.316372  	84.695907 
2864.748030  	85.012110 
2866.179688  	85.441372 
2867.611346  	85.905376 
2869.043005  	86.392641 
2870.474663  	87.016683 
2871.906321  	87.750381 
2873.337979  	88.584287 
2874.769637  	89.496357 
2876.201295  	90.388945 
2877.632954  	91.282954 
2879.064612  	92.160407 
2880.496270  	92.953021 
2881.927928  	93.641140 
2883.359586  	94.161446 
2884.791245  	94.524639 
2886.222903  	94.815955 
2887.654561  	95.051516 
2889.086219  	95.145190 
2890.517877  	95.067716 
2891.949535  	94.981306 
2893.381194  	94.889189 
2894.812852  	94.685478 
2896.244510  	94.511076 
2897.676168  	94.376175 
2899.107826  	94.177667 
2900.539485  	94.011942 
2901.971143  	93.825940 
2903.402801  	93.525938 
2904.834459  	93.221314 
2906.266117  	92.936390 
2907.697776  	92.658809 
2909.129434  	92.397573 
2910.561092  	92.104830 
2911.992750  	91.815867 
2913.424408  	91.565994 
2914.856066  	91.343016 
2916.287725  	91.187304 
2917.719383  	91.098829 
2919.151041  	91.030443 
2920.582699  	90.940992 
2922.014357  	90.833113 
2923.446016  	90.755549 
2924.877674  	90.647183 
2926.309332  	90.440144 
2927.740990  	90.197358 
2929.172648  	89.923249 
2930.604306  	89.570699 
2932.035965  	89.183108 
2933.467623  	88.839026 
2934.899281  	88.537106 
2936.330939  	88.216796 
2937.762597  	87.923121 
2939.194256  	87.750982 
2940.625914  	87.699708 
2942.057572  	87.759365 
2943.489230  	87.914060 
2944.920888  	88.147294 
2946.352547  	88.504715 
2947.784205  	88.936712 
2949.215863  	89.364201 
2950.647521  	89.851207 
2952.079179  	90.437758 
2953.510837  	91.107423 
2954.942496  	91.829169 
2956.374154  	92.544930 
2957.805812  	93.261087 
2959.237470  	93.977548 
2960.669128  	94.729288 
2962.100787  	95.565650 
2963.532445  	96.364336 
2964.964103  	97.126319 
2966.395761  	97.957857 
2967.827419  	98.779184 
2969.259078  	99.588259 
2970.690736  	100.376293 
2972.122394  	101.060681 
2973.554052  	101.749042 
2974.985710  	102.448784 
2976.417368  	103.067805 
2977.849027  	103.644073 
2979.280685  	104.173620 
2980.712343  	104.659629 
2982.144001  	105.087268 
2983.575659  	105.446745 
2985.007318  	105.805537 
2986.438976  	106.087557 
2987.870634  	106.320580 
2989.302292  	106.611892 
2990.733950  	106.824239 
2992.165608  	106.972834 
2993.597267  	107.115317 
2995.028925  	107.162625 
2996.460583  	107.218005 
2997.892241  	107.266031 
2999.323899  	107.236005 
3000.755558  	107.252144 
3002.187216  	107.252401 
3003.618874  	107.229357 
3005.050532  	107.270327 
3006.482190  	107.258792 
3007.913849  	107.227814 
3009.345507  	107.215956 
3010.777165  	107.152059 
3012.208823  	107.140015 
3013.640481  	107.171524 
3015.072139  	107.184845 
3016.503798  	107.215145 
3017.935456  	107.188651 
3019.367114  	107.129200 
3020.798772  	107.066760 
3022.230430  	106.929314 
3023.662089  	106.768582 
3025.093747  	106.581590 
3026.525405  	106.352185 
3027.957063  	106.126629 
3029.388721  	105.889267 
3030.820380  	105.715865 
3032.252038  	105.583052 
3033.683696  	105.410603 
3035.115354  	105.346056 
3036.547012  	105.351163 
3037.978670  	105.296468 
3039.410329  	105.255123 
3040.841987  	105.186052 
3042.273645  	105.105268 
3043.705303  	105.129248 
3045.136961  	105.189270 
3046.568620  	105.223277 
3048.000278  	105.239679 
3049.431936  	105.302833 
3050.863594  	105.442639 
3052.295252  	105.495307 
3053.726910  	105.446766 
3055.158569  	105.411625 
3056.590227  	105.400146 
3058.021885  	105.459290 
3059.453543  	105.521957 
3060.885201  	105.533191 
3062.316860  	105.584594 
3063.748518  	105.648878 
3065.180176  	105.779188 
3066.611834  	105.980810 
3068.043492  	106.088451 
3069.475151  	106.226706 
3070.906809  	106.429703 
3072.338467  	106.534922 
3073.770125  	106.652386 
3075.201783  	106.792900 
3076.633441  	106.902908 
3078.065100  	107.073605 
3079.496758  	107.210547 
3080.928416  	107.269344 
3082.360074  	107.320148 
3083.791732  	107.379258 
3085.223391  	107.484776 
3086.655049  	107.538213 
3088.086707  	107.556226 
3089.518365  	107.635531 
3090.950023  	107.619107 
3092.381682  	107.578917 
3093.813340  	107.613110 
3095.244998  	107.529252 
3096.676656  	107.400572 
3098.108314  	107.302415 
3099.539972  	107.171375 
3100.971631  	107.088186 
3102.403289  	106.960515 
3103.834947  	106.799158 
3105.266605  	106.761955 
3106.698263  	106.697991 
3108.129922  	106.522800 
3109.561580  	106.301407 
3110.993238  	106.099184 
3112.424896  	106.004291 
3113.856554  	105.884486 
3115.288212  	105.736320 
3116.719871  	105.696646 
3118.151529  	105.623458 
3119.583187  	105.525988 
3121.014845  	105.495485 
3122.446503  	105.469995 
3123.878162  	105.506761 
3125.309820  	105.535352 
3126.741478  	105.567301 
3128.173136  	105.771219 
3129.604794  	105.939468 
3131.036453  	106.037710 
3132.468111  	106.294708 
3133.899769  	106.566960 
3135.331427  	106.737437 
3136.763085  	106.874918 
3138.194743  	107.014211 
3139.626402  	107.192456 
3141.058060  	107.321678 
3142.489718  	107.407304 
3143.921376  	107.532713 
3145.353034  	107.641042 
3146.784693  	107.702637 
3148.216351  	107.649123 
3149.648009  	107.572421 
3151.079667  	107.657988 
3152.511325  	107.716760 
3153.942983  	107.689079 
3155.374642  	107.667387 
3156.806300  	107.545464 
3158.237958  	107.468127 
3159.669616  	107.486766 
3161.101274  	107.448812 
3162.532933  	107.428079 
3163.964591  	107.312366 
3165.396249  	107.112772 
3166.827907  	107.059340 
3168.259565  	106.965164 
3169.691224  	106.808800 
3171.122882  	106.699348 
3172.554540  	106.478637 
3173.986198  	106.329502 
3175.417856  	106.301886 
3176.849514  	106.120004 
3178.281173  	105.902652 
3179.712831  	105.717755 
3181.144489  	105.485916 
3182.576147  	105.297436 
3184.007805  	105.107843 
3185.439464  	104.908612 
3186.871122  	104.742717 
3188.302780  	104.580666 
3189.734438  	104.529699 
3191.166096  	104.569671 
3192.597755  	104.595027 
3194.029413  	104.641502 
3195.461071  	104.684323 
3196.892729  	104.779108 
3198.324387  	104.962778 
3199.756045  	105.086690 
3201.187704  	105.155757 
3202.619362  	105.227857 
3204.051020  	105.290822 
3205.482678  	105.323893 
3206.914336  	105.270357 
3208.345995  	105.235258 
3209.777653  	105.272190 
3211.209311  	105.252114 
3212.640969  	105.184785 
3214.072627  	105.088671 
3215.504285  	104.969194 
3216.935944  	104.847058 
3218.367602  	104.661882 
3219.799260  	104.508619 
3221.230918  	104.396309 
3222.662576  	104.217287 
3224.094235  	104.074849 
3225.525893  	103.904897 
3226.957551  	103.678661 
3228.389209  	103.559788 
3229.820867  	103.371862 
3231.252526  	103.134223 
3232.684184  	103.072486 
3234.115842  	102.934676 
3235.547500  	102.656672 
3236.979158  	102.451344 
3238.410816  	102.248628 
3239.842475  	102.034722 
3241.274133  	101.835671 
3242.705791  	101.585524 
3244.137449  	101.345805 
3245.569107  	101.156778 
3247.000766  	100.978265 
3248.432424  	100.774143 
3249.864082  	100.566789 
3251.295740  	100.402445 
3252.727398  	100.216120 
3254.159057  	100.025389 
3255.590715  	99.859908 
3257.022373  	99.602855 
3258.454031  	99.330689 
3259.885689  	99.144165 
3261.317347  	98.970272 
3262.749006  	98.782276 
3264.180664  	98.514430 
3265.612322  	98.237570 
3267.043980  	98.123173 
3268.475638  	98.026069 
3269.907297  	97.799789 
3271.338955  	97.503875 
3272.770613  	97.252244 
3274.202271  	97.104484 
3275.633929  	96.883771 
3277.065587  	96.597182 
3278.497246  	96.425193 
3279.928904  	96.235755 
3281.360562  	96.032795 
3282.792220  	95.842037 
3284.223878  	95.496767 
3285.655537  	95.222118 
3287.087195  	95.084182 
3288.518853  	94.833116 
3289.950511  	94.615090 
3291.382169  	94.445800 
3292.813828  	94.222699 
3294.245486  	94.101242 
3295.677144  	93.936673 
3297.108802  	93.685236 
3298.540460  	93.587138 
3299.972118  	93.485760 
3301.403777  	93.261920 
3302.835435  	93.099322 
3304.267093  	93.013794 
3305.698751  	92.912465 
3307.130409  	92.784595 
3308.562068  	92.716026 
3309.993726  	92.703430 
3311.425384  	92.637182 
3312.857042  	92.568854 
3314.288700  	92.519402 
3315.720359  	92.452041 
3317.152017  	92.429889 
3318.583675  	92.430729 
3320.015333  	92.478734 
3321.446991  	92.590191 
3322.878649  	92.650385 
3324.310308  	92.751703 
3325.741966  	92.928145 
3327.173624  	93.038224 
3328.605282  	93.194444 
3330.036940  	93.480644 
3331.468599  	93.786101 
3332.900257  	94.031837 
3334.331915  	94.235072 
3335.763573  	94.565180 
3337.195231  	95.015901 
3338.626889  	95.449934 
3340.058548  	95.943629 
3341.490206  	96.428100 
3342.921864  	96.809568 
3344.353522  	97.235827 
3345.785180  	97.746070 
3347.216839  	98.320907 
3348.648497  	98.858031 
3350.080155  	99.255722 
3351.511813  	99.735666 
3352.943471  	100.323126 
3354.375130  	100.800349 
3355.806788  	101.189767 
3357.238446  	101.528303 
3358.670104  	101.884163 
3360.101762  	102.337951 
3361.533420  	102.778442 
3362.965079  	103.164917 
3364.396737  	103.497784 
3365.828395  	103.789627 
3367.260053  	104.119694 
3368.691711  	104.411611 
3370.123370  	104.652694 
3371.555028  	104.888435 
3372.986686  	105.054444 
3374.418344  	105.223302 
3375.850002  	105.405121 
3377.281660  	105.541850 
3378.713319  	105.702221 
3380.144977  	105.825862 
3381.576635  	105.901721 
3383.008293  	106.000315 
3384.439951  	106.117704 
3385.871610  	106.322138 
3387.303268  	106.444142 
3388.734926  	106.397997 
3390.166584  	106.490476 
3391.598242  	106.638994 
3393.029901  	106.671022 
3394.461559  	106.706423 
3395.893217  	106.672285 
3397.324875  	106.706696 
3398.756533  	106.968841 
3400.188191  	107.140414 
3401.619850  	107.170365 
3403.051508  	107.207390 
3404.483166  	107.227978 
3405.914824  	107.276127 
3407.346482  	107.359419 
3408.778141  	107.481731 
3410.209799  	107.595281 
3411.641457  	107.630766 
3413.073115  	107.737823 
3414.504773  	107.846803 
3415.936432  	107.843090 
3417.368090  	107.903391 
3418.799748  	107.930648 
3420.231406  	107.880604 
3421.663064  	107.952674 
3423.094722  	108.006093 
3424.526381  	107.987102 
3425.958039  	108.030983 
3427.389697  	108.087552 
3428.821355  	108.130806 
3430.253013  	108.152623 
3431.684672  	108.177885 
3433.116330  	108.224392 
3434.547988  	108.235223 
3435.979646  	108.293711 
3437.411304  	108.330339 
3438.842962  	108.269678 
3440.274621  	108.295382 
3441.706279  	108.303307 
3443.137937  	108.288113 
3444.569595  	108.440218 
3446.001253  	108.504156 
3447.432912  	108.472565 
3448.864570  	108.554571 
3450.296228  	108.611609 
3451.727886  	108.704122 
3453.159544  	108.759191 
3454.591203  	108.644398 
3456.022861  	108.683406 
3457.454519  	108.804072 
3458.886177  	108.749540 
3460.317835  	108.747971 
3461.749493  	108.828689 
3463.181152  	108.846181 
3464.612810  	108.836628 
3466.044468  	108.849195 
3467.476126  	108.900722 
3468.907784  	108.902280 
3470.339443  	108.877799 
3471.771101  	108.873784 
3473.202759  	108.775940 
3474.634417  	108.716804 
3476.066075  	108.761736 
3477.497734  	108.746066 
3478.929392  	108.743885 
3480.361050  	108.739475 
3481.792708  	108.700425 
3483.224366  	108.741111 
3484.656024  	108.731892 
3486.087683  	108.714014 
3487.519341  	108.772719 
3488.950999  	108.730811 
3490.382657  	108.720854 
3491.814315  	108.809782 
3493.245974  	108.834296 
3494.677632  	108.880799 
3496.109290  	108.890733 
3497.540948  	108.794757 
3498.972606  	108.768542 
3500.404264  	108.780789 
3501.835923  	108.792151 
3503.267581  	108.806718 
3504.699239  	108.763700 
3506.130897  	108.773373 
3507.562555  	108.834249 
3508.994214  	108.853597 
3510.425872  	108.829785 
3511.857530  	108.803372 
3513.289188  	108.880112 
3514.720846  	108.950306 
3516.152505  	108.900484 
3517.584163  	108.913082 
3519.015821  	108.917026 
3520.447479  	108.792986 
3521.879137  	108.726547 
3523.310795  	108.786456 
3524.742454  	108.910927 
3526.174112  	108.899141 
3527.605770  	108.764527 
3529.037428  	108.870704 
3530.469086  	109.094552 
3531.900745  	109.204638 
3533.332403  	109.283232 
3534.764061  	109.176924 
3536.195719  	109.027437 
3537.627377  	109.130262 
3539.059035  	109.204705 
3540.490694  	109.219935 
3541.922352  	109.298919 
3543.354010  	109.258826 
3544.785668  	109.185174 
3546.217326  	109.243074 
3547.648985  	109.367600 
3549.080643  	109.456136 
3550.512301  	109.399856 
3551.943959  	109.304788 
3553.375617  	109.331806 
3554.807276  	109.411592 
3556.238934  	109.479868 
3557.670592  	109.515097 
3559.102250  	109.561335 
3560.533908  	109.628565 
3561.965566  	109.631107 
3563.397225  	109.628131 
3564.828883  	109.506006 
3566.260541  	109.260648 
3567.692199  	109.430924 
3569.123857  	109.745992 
3570.555516  	109.711123 
3571.987174  	109.758270 
3573.418832  	109.845171 
3574.850490  	109.760950 
3576.282148  	109.700220 
3577.713807  	109.770597 
3579.145465  	109.938933 
3580.577123  	110.069617 
3582.008781  	110.053420 
3583.440439  	110.020725 
3584.872097  	109.950393 
3586.303756  	109.834710 
3587.735414  	109.932893 
3589.167072  	110.190573 
3590.598730  	110.205402 
3592.030388  	110.029363 
3593.462047  	109.877350 
3594.893705  	109.904452 
3596.325363  	109.988558 
3597.757021  	110.017002 
3599.188679  	109.996876 
3600.620337  	110.037424 
3602.051996  	110.220667 
3603.483654  	110.237186 
3604.915312  	110.137572 
3606.346970  	110.196977 
3607.778628  	110.243673 
3609.210287  	110.359205 
3610.641945  	110.515718 
3612.073603  	110.291088 
3613.505261  	110.156688 
3614.936919  	110.401372 
3616.368578  	110.302207 
3617.800236  	110.021653 
3619.231894  	110.118914 
3620.663552  	110.505769 
3622.095210  	110.606280 
3623.526868  	110.436374 
3624.958527  	110.385123 
3626.390185  	110.336595 
3627.821843  	109.970054 
3629.253501  	109.904721 
3630.685159  	110.407502 
3632.116818  	110.366047 
3633.548476  	110.384667 
3634.980134  	110.582945 
3636.411792  	110.627803 
3637.843450  	110.723809 
3639.275109  	110.783103 
3640.706767  	110.666465 
3642.138425  	110.675445 
3643.570083  	110.807606 
3645.001741  	110.752855 
3646.433399  	110.516796 
3647.865058  	110.376168 
3649.296716  	110.339597 
3650.728374  	110.350128 
3652.160032  	110.837881 
3653.591690  	110.992219 
3655.023349  	110.771492 
3656.455007  	110.900703 
3657.886665  	111.194256 
3659.318323  	111.064747 
3660.749981  	111.053076 
3662.181639  	111.173253 
3663.613298  	111.165321 
3665.044956  	111.109091 
3666.476614  	111.030586 
3667.908272  	110.940386 
3669.339930  	110.770280 
3670.771589  	110.745734 
3672.203247  	110.995404 
3673.634905  	110.821357 
3675.066563  	110.567374 
3676.498221  	111.164448 
3677.929880  	111.315918 
3679.361538  	111.174741 
3680.793196  	111.265360 
3682.224854  	111.252074 
3683.656512  	111.257741 
3685.088170  	111.282485 
3686.519829  	111.060830 
3687.951487  	110.932409 
3689.383145  	111.102634 
3690.814803  	111.167627 
3692.246461  	111.276232 
3693.678120  	111.376689 
3695.109778  	111.283500 
3696.541436  	111.210695 
3697.973094  	111.244277 
3699.404752  	111.156099 
3700.836411  	110.992299 
3702.268069  	111.086033 
3703.699727  	111.229145 
3705.131385  	111.181013 
3706.563043  	111.202144 
3707.994701  	111.178574 
3709.426360  	110.961136 
3710.858018  	110.816220 
3712.289676  	110.907094 
3713.721334  	111.265880 
3715.152992  	111.513291 
3716.584651  	111.421195 
3718.016309  	111.311445 
3719.447967  	111.247043 
3720.879625  	111.007759 
3722.311283  	110.865671 
3723.742941  	110.957696 
3725.174600  	110.965969 
3726.606258  	110.908339 
3728.037916  	110.960812 
3729.469574  	111.033557 
3730.901232  	111.006266 
3732.332891  	110.906539 
3733.764549  	110.711705 
3735.196207  	110.529863 
3736.627865  	111.037332 
3738.059523  	111.506259 
3739.491182  	111.382723 
3740.922840  	111.369927 
3742.354498  	111.203278 
3743.786156  	110.810863 
3745.217814  	111.377706 
3746.649472  	111.541208 
3748.081131  	110.969175 
3749.512789  	110.941458 
3750.944447  	111.169848 
3752.376105  	111.108842 
3753.807763  	111.394809 
3755.239422  	111.349124 
3756.671080  	111.221216 
3758.102738  	111.375846 
3759.534396  	111.367219 
3760.966054  	111.391622 
3762.397712  	111.459427 
3763.829371  	111.279974 
3765.261029  	111.257707 
3766.692687  	111.368394 
3768.124345  	111.222994 
3769.556003  	111.142430 
3770.987662  	111.299167 
3772.419320  	111.459106 
3773.850978  	111.466215 
3775.282636  	111.381212 
3776.714294  	111.388466 
3778.145953  	111.325052 
3779.577611  	111.186059 
3781.009269  	111.317030 
3782.440927  	111.341927 
3783.872585  	111.169533 
3785.304243  	111.197912 
3786.735902  	111.352574 
3788.167560  	111.361080 
3789.599218  	111.263069 
3791.030876  	111.217876 
3792.462534  	111.334313 
3793.894193  	111.379370 
3795.325851  	111.228229 
3796.757509  	111.131830 
3798.189167  	111.139078 
3799.620825  	110.969861 
3801.052484  	110.769251 
3802.484142  	111.159550 
3803.915800  	111.425594 
3805.347458  	111.122072 
3806.779116  	111.038873 
3808.210774  	111.465005 
3809.642433  	111.405280 
3811.074091  	111.219606 
3812.505749  	111.234589 
3813.937407  	111.091591 
3815.369065  	110.921515 
3816.800724  	111.184348 
3818.232382  	111.174268 
3819.664040  	110.760924 
3821.095698  	110.681190 
3822.527356  	111.282472 
3823.959014  	111.282661 
3825.390673  	111.110655 
3826.822331  	111.253591 
3828.253989  	111.265477 
3829.685647  	110.994642 
3831.117305  	110.872233 
3832.548964  	110.927009 
3833.980622  	110.997035 
3835.412280  	111.047739 
3836.843938  	110.972783 
3838.275596  	110.835642 
3839.707255  	110.853896 
3841.138913  	110.951123 
3842.570571  	110.980875 
3844.002229  	111.008944 
3845.433887  	111.117275 
3846.865545  	111.131378 
3848.297204  	111.080866 
3849.728862  	111.098400 
3851.160520  	110.892625 
3852.592178  	110.412745 
3854.023836  	110.551652 
3855.455495  	111.152182 
3856.887153  	111.207921 
3858.318811  	111.190105 
3859.750469  	111.081947 
3861.182127  	110.987322 
3862.613786  	110.881162 
3864.045444  	110.639072 
3865.477102  	110.779364 
3866.908760  	111.073060 
3868.340418  	110.800587 
3869.772076  	110.581578 
3871.203735  	111.013178 
3872.635393  	111.044321 
3874.067051  	110.899836 
3875.498709  	111.026301 
3876.930367  	111.045627 
3878.362026  	110.893869 
3879.793684  	110.799818 
3881.225342  	110.940414 
3882.657000  	111.042264 
3884.088658  	110.797909 
3885.520316  	110.599371 
3886.951975  	110.983652 
3888.383633  	111.098875 
3889.815291  	110.851366 
3891.246949  	110.859965 
3892.678607  	111.082973 
3894.110266  	111.048036 
3895.541924  	111.001470 
3896.973582  	110.931400 
3898.405240  	110.776546 
3899.836898  	110.744730 
3901.268557  	110.725303 
3902.700215  	110.596748 
3904.131873  	110.644795 
3905.563531  	110.881336 
3906.995189  	111.041395 
3908.426847  	111.087080 
3909.858506  	111.034616 
3911.290164  	110.983809 
3912.721822  	111.025457 
3914.153480  	111.035658 
3915.585138  	110.893313 
3917.016797  	110.712645 
3918.448455  	110.705738 
3919.880113  	110.783192 
3921.311771  	110.818998 
3922.743429  	110.790543 
3924.175088  	110.737179 
3925.606746  	110.821265 
3927.038404  	110.927932 
3928.470062  	110.875358 
3929.901720  	110.805848 
3931.333378  	110.721583 
3932.765037  	110.669511 
3934.196695  	110.841836 
3935.628353  	110.894658 
3937.060011  	110.757835 
3938.491669  	110.779980 
3939.923328  	110.804897 
3941.354986  	110.656742 
3942.786644  	110.609282 
3944.218302  	110.702049 
3945.649960  	110.758725 
3947.081618  	110.793105 
3948.513277  	110.829719 
3949.944935  	110.868084 
3951.376593  	110.878661 
3952.808251  	110.878261 
3954.239909  	110.865313 
3955.671568  	110.766592 
3957.103226  	110.683502 
3958.534884  	110.728793 
3959.966542  	110.788319 
3961.398200  	110.767263 
3962.829859  	110.710405 
3964.261517  	110.721838 
3965.693175  	110.755662 
3967.124833  	110.699249 
3968.556491  	110.637451 
3969.988149  	110.621078 
3971.419808  	110.623335 
3972.851466  	110.664027 
3974.283124  	110.640339 
3975.714782  	110.603794 
3977.146440  	110.664537 
3978.578099  	110.659717 
3980.009757  	110.655912 
3981.441415  	110.730376 
3982.873073  	110.644156 
3984.304731  	110.536455 
3985.736389  	110.614780 
3987.168048  	110.631640 
3988.599706  	110.541410 
3990.031364  	110.546850 
3991.463022  	110.610677 
3992.894680  	110.620976 
3994.326339  	110.652868 
3995.757997  	110.746365 
3997.189655  	110.755243 
3998.621313  	110.711649 
4000.052971  	110.742101 