##TITLE=No Description
##DATA TYPE=INFRARED SPECTRUM
##XUNITS=1/CM
##YUNITS=%T
399.432634  	76.557221 
400.864292  	73.055059 
402.295950  	73.844285 
403.727608  	75.375272 
405.159267  	78.183347 
406.590925  	82.181272 
408.022583  	81.869375 
409.454241  	79.053562 
410.885899  	79.198275 
412.317558  	82.751942 
413.749216  	87.316762 
415.180874  	86.654675 
416.612532  	82.750650 
418.044190  	84.476733 
419.475848  	91.788748 
420.907507  	91.104604 
422.339165  	88.200963 
423.770823  	85.971248 
425.202481  	86.812832 
426.634139  	88.882763 
428.065798  	89.733529 
429.497456  	90.353195 
430.929114  	89.209678 
432.360772  	87.259498 
433.792430  	89.003325 
435.224089  	91.261276 
436.655747  	89.618003 
438.087405  	87.501271 
439.519063  	87.395218 
440.950721  	87.654383 
442.382379  	87.516230 
443.814038  	87.507591 
445.245696  	88.409523 
446.677354  	89.813184 
448.109012  	89.524571 
449.540670  	88.082672 
450.972329  	88.622157 
452.403987  	90.167561 
453.835645  	89.472791 
455.267303  	88.583767 
456.698961  	89.759194 
458.130619  	91.499119 
459.562278  	91.385870 
460.993936  	89.793532 
462.425594  	87.896340 
463.857252  	87.053139 
465.288910  	85.944457 
466.720569  	84.641778 
468.152227  	85.511262 
469.583885  	86.527302 
471.015543  	85.559241 
472.447201  	84.511125 
473.878860  	85.130166 
475.310518  	86.302863 
476.742176  	86.900449 
478.173834  	86.413737 
479.605492  	85.504669 
481.037150  	84.852037 
482.468809  	84.515622 
483.900467  	84.099881 
485.332125  	82.763270 
486.763783  	80.946950 
488.195441  	80.135792 
489.627100  	80.543886 
491.058758  	81.248478 
492.490416  	81.737929 
493.922074  	81.866528 
495.353732  	81.689320 
496.785391  	82.012787 
498.217049  	82.616104 
499.648707  	82.510908 
501.080365  	82.440005 
502.512023  	82.726181 
503.943681  	82.412315 
505.375340  	82.143742 
506.806998  	82.280816 
508.238656  	82.315547 
509.670314  	82.686264 
511.101972  	83.148107 
512.533631  	82.964075 
513.965289  	82.992392 
515.396947  	83.444324 
516.828605  	82.991860 
518.260263  	81.800233 
519.691921  	81.214215 
521.123580  	80.677747 
522.555238  	79.454258 
523.986896  	78.373328 
525.418554  	77.738020 
526.850212  	76.817853 
528.281871  	75.767044 
529.713529  	74.733747 
531.145187  	73.207151 
532.576845  	71.504155 
534.008503  	70.147713 
535.440162  	68.737040 
536.871820  	66.803254 
538.303478  	64.720224 
539.735136  	62.882840 
541.166794  	60.704340 
542.598452  	58.194492 
544.030111  	56.128604 
545.461769  	53.874293 
546.893427  	51.182005 
548.325085  	49.043850 
549.756743  	46.925870 
551.188402  	44.778632 
552.620060  	43.786399 
554.051718  	43.710993 
555.483376  	44.420305 
556.915034  	46.014836 
558.346692  	47.894511 
559.778351  	50.125118 
561.210009  	52.633698 
562.641667  	55.322166 
564.073325  	59.065088 
565.504983  	64.132869 
566.936642  	70.251646 
568.368300  	76.918474 
569.799958  	82.555452 
571.231616  	85.551677 
572.663274  	85.674875 
574.094933  	84.707127 
575.526591  	84.148974 
576.958249  	83.940014 
578.389907  	84.213303 
579.821565  	85.272122 
581.253223  	86.307090 
582.684882  	86.860495 
584.116540  	87.606220 
585.548198  	88.496941 
586.979856  	89.149568 
588.411514  	89.775871 
589.843173  	90.387282 
591.274831  	90.885310 
592.706489  	91.347681 
594.138147  	91.706398 
595.569805  	92.129516 
597.001464  	92.741741 
598.433122  	93.092249 
599.864780  	93.090814 
601.296438  	93.248240 
602.728096  	93.617944 
604.159754  	93.890200 
605.591413  	94.060127 
607.023071  	94.206918 
608.454729  	94.303612 
609.886387  	94.410451 
611.318045  	94.570043 
612.749704  	94.641113 
614.181362  	94.616804 
615.613020  	94.720933 
617.044678  	94.958085 
618.476336  	95.029884 
619.907994  	94.799584 
621.339653  	94.423180 
622.771311  	94.071687 
624.202969  	93.729629 
625.634627  	93.387943 
627.066285  	93.079270 
628.497944  	92.678006 
629.929602  	92.028156 
631.361260  	91.291525 
632.792918  	90.979705 
634.224576  	91.151972 
635.656235  	91.362878 
637.087893  	91.727670 
638.519551  	92.446885 
639.951209  	93.241119 
641.382867  	93.953485 
642.814525  	94.360377 
644.246184  	94.178228 
645.677842  	93.875736 
647.109500  	93.782829 
648.541158  	93.638037 
649.972816  	93.634995 
651.404475  	93.665882 
652.836133  	93.340399 
654.267791  	93.194565 
655.699449  	93.431786 
657.131107  	93.451148 
658.562766  	93.182261 
659.994424  	92.884312 
661.426082  	92.752724 
662.857740  	92.775897 
664.289398  	92.603930 
665.721056  	92.290390 
667.152715  	92.092788 
668.584373  	91.953031 
670.016031  	91.794740 
671.447689  	91.623123 
672.879347  	91.307526 
674.311006  	90.871515 
675.742664  	90.465023 
677.174322  	90.137484 
678.605980  	89.831323 
680.037638  	89.513098 
681.469296  	89.125407 
682.900955  	88.287534 
684.332613  	86.978129 
685.764271  	85.752009 
687.195929  	84.933332 
688.627587  	84.787605 
690.059246  	85.176337 
691.490904  	85.404379 
692.922562  	85.390402 
694.354220  	85.144617 
695.785878  	84.523478 
697.217537  	83.685999 
698.649195  	82.561232 
700.080853  	81.083095 
701.512511  	79.536275 
702.944169  	78.072089 
704.375827  	76.966229 
705.807486  	76.378844 
707.239144  	76.221818 
708.670802  	76.602773 
710.102460  	77.320412 
711.534118  	78.193873 
712.965777  	79.234779 
714.397435  	80.229826 
715.829093  	81.110013 
717.260751  	81.828286 
718.692409  	82.337429 
720.124067  	82.583833 
721.555726  	82.213023 
722.987384  	81.367472 
724.419042  	80.594471 
725.850700  	79.965595 
727.282358  	79.494240 
728.714017  	79.223825 
730.145675  	79.031817 
731.577333  	78.975297 
733.008991  	79.092773 
734.440649  	79.500869 
735.872308  	80.135942 
737.303966  	80.343244 
738.735624  	79.994364 
740.167282  	79.474725 
741.598940  	78.783653 
743.030598  	77.966433 
744.462257  	76.987025 
745.893915  	75.720741 
747.325573  	74.331243 
748.757231  	72.716607 
750.188889  	70.948779 
751.620548  	69.292585 
753.052206  	67.503256 
754.483864  	65.792954 
755.915522  	64.490338 
757.347180  	63.298372 
758.778839  	62.349916 
760.210497  	61.797140 
761.642155  	61.356710 
763.073813  	60.915140 
764.505471  	60.358283 
765.937129  	59.777336 
767.368788  	59.534544 
768.800446  	59.882173 
770.232104  	61.038614 
771.663762  	62.947226 
773.095420  	65.403008 
774.527079  	68.168796 
775.958737  	70.862473 
777.390395  	73.297422 
778.822053  	75.368002 
780.253711  	76.987399 
781.685369  	78.290852 
783.117028  	79.401314 
784.548686  	80.334394 
785.980344  	81.006598 
787.412002  	81.342246 
788.843660  	81.588687 
790.275319  	81.874280 
791.706977  	82.016582 
793.138635  	81.957096 
794.570293  	81.502437 
796.001951  	80.614524 
797.433610  	79.553498 
798.865268  	77.969574 
800.296926  	75.620682 
801.728584  	72.842936 
803.160242  	69.541048 
804.591900  	65.921447 
806.023559  	62.513734 
807.455217  	59.202147 
808.886875  	56.020979 
810.318533  	53.153623 
811.750191  	50.771994 
813.181850  	49.210081 
814.613508  	48.443879 
816.045166  	48.498839 
817.476824  	49.074667 
818.908482  	49.359146 
820.340141  	49.098360 
821.771799  	48.109174 
823.203457  	46.155877 
824.635115  	43.643003 
826.066773  	41.118215 
827.498431  	39.358895 
828.930090  	39.019167 
830.361748  	39.991120 
831.793406  	42.121247 
833.225064  	45.078920 
834.656722  	48.497605 
836.088381  	52.183376 
837.520039  	55.652971 
838.951697  	58.657799 
840.383355  	61.249276 
841.815013  	63.365000 
843.246671  	65.186053 
844.678330  	67.058680 
846.109988  	69.134622 
847.541646  	71.449553 
848.973304  	74.029536 
850.404962  	76.894374 
851.836621  	79.843863 
853.268279  	82.644920 
854.699937  	85.263833 
856.131595  	87.571824 
857.563253  	89.427218 
858.994912  	90.870359 
860.426570  	91.918666 
861.858228  	92.556086 
863.289886  	92.872416 
864.721544  	92.912981 
866.153202  	92.639391 
867.584861  	92.044339 
869.016519  	91.157542 
870.448177  	90.048845 
871.879835  	88.686895 
873.311493  	87.063511 
874.743152  	85.296530 
876.174810  	83.291335 
877.606468  	81.023543 
879.038126  	78.630477 
880.469784  	76.071978 
881.901443  	73.517936 
883.333101  	71.176448 
884.764759  	69.158630 
886.196417  	67.858339 
887.628075  	67.599872 
889.059733  	68.732586 
890.491392  	71.504495 
891.923050  	75.646990 
893.354708  	80.589335 
894.786366  	85.342714 
896.218024  	89.041537 
897.649683  	91.558644 
899.081341  	93.069280 
900.512999  	93.820165 
901.944657  	94.203000 
903.376315  	94.381256 
904.807973  	94.331405 
906.239632  	94.066473 
907.671290  	93.645403 
909.102948  	93.255578 
910.534606  	92.817375 
911.966264  	92.111249 
913.397923  	91.304217 
914.829581  	90.512620 
916.261239  	89.771343 
917.692897  	89.228694 
919.124555  	88.920597 
920.556214  	89.029140 
921.987872  	89.602358 
923.419530  	90.332799 
924.851188  	91.010609 
926.282846  	91.327502 
927.714504  	91.096678 
929.146163  	90.613940 
930.577821  	89.933255 
932.009479  	89.009440 
933.441137  	88.157051 
934.872795  	87.592521 
936.304454  	87.348419 
937.736112  	87.221014 
939.167770  	86.939752 
940.599428  	86.592563 
942.031086  	86.313196 
943.462744  	86.167366 
944.894403  	86.268773 
946.326061  	86.593367 
947.757719  	87.033292 
949.189377  	87.391317 
950.621035  	87.514769 
952.052694  	87.414475 
953.484352  	86.985580 
954.916010  	86.271525 
956.347668  	85.541822 
957.779326  	84.853631 
959.210985  	84.346624 
960.642643  	84.157068 
962.074301  	84.123918 
963.505959  	84.180991 
964.937617  	84.291743 
966.369275  	84.350658 
967.800934  	84.322736 
969.232592  	84.177418 
970.664250  	83.986266 
972.095908  	83.716875 
973.527566  	83.259302 
974.959225  	82.756800 
976.390883  	82.152245 
977.822541  	81.340382 
979.254199  	80.543211 
980.685857  	79.695547 
982.117516  	78.646404 
983.549174  	77.430558 
984.980832  	75.924335 
986.412490  	74.125247 
987.844148  	72.074833 
989.275806  	69.802543 
990.707465  	67.560022 
992.139123  	65.512208 
993.570781  	63.887650 
995.002439  	62.732771 
996.434097  	61.592161 
997.865756  	59.985271 
999.297414  	57.230600 
1000.729072  	52.919036 
1002.160730  	47.718635 
1003.592388  	42.760743 
1005.024046  	39.287308 
1006.455705  	37.644874 
1007.887363  	36.830299 
1009.319021  	35.606312 
1010.750679  	32.232697 
1012.182337  	26.458091 
1013.613996  	22.445993 
1015.045654  	25.075369 
1016.477312  	34.625696 
1017.908970  	47.171553 
1019.340628  	59.048364 
1020.772287  	68.641421 
1022.203945  	75.873510 
1023.635603  	81.635709 
1025.067261  	86.130549 
1026.498919  	89.021333 
1027.930577  	90.546564 
1029.362236  	91.194872 
1030.793894  	91.268098 
1032.225552  	91.023128 
1033.657210  	90.620320 
1035.088868  	90.034635 
1036.520527  	89.378437 
1037.952185  	88.760216 
1039.383843  	88.098636 
1040.815501  	87.441922 
1042.247159  	86.823778 
1043.678818  	86.160614 
1045.110476  	85.441369 
1046.542134  	84.676460 
1047.973792  	83.942613 
1049.405450  	83.267723 
1050.837108  	82.574842 
1052.268767  	81.858539 
1053.700425  	81.109140 
1055.132083  	80.360137 
1056.563741  	79.602578 
1057.995399  	78.721953 
1059.427058  	77.753623 
1060.858716  	76.686867 
1062.290374  	75.526304 
1063.722032  	74.346621 
1065.153690  	72.954285 
1066.585348  	71.334755 
1068.017007  	69.486974 
1069.448665  	67.121676 
1070.880323  	64.290118 
1072.311981  	60.821207 
1073.743639  	56.282145 
1075.175298  	50.403831 
1076.606956  	42.743917 
1078.038614  	34.955201 
1079.470272  	30.680588 
1080.901930  	31.574464 
1082.333589  	37.189054 
1083.765247  	45.561933 
1085.196905  	54.446805 
1086.628563  	62.226672 
1088.060221  	67.556673 
1089.491879  	70.160810 
1090.923538  	70.683176 
1092.355196  	69.726884 
1093.786854  	67.831909 
1095.218512  	65.258864 
1096.650170  	61.890201 
1098.081829  	58.108990 
1099.513487  	54.518438 
1100.945145  	51.968370 
1102.376803  	51.188470 
1103.808461  	51.518312 
1105.240120  	52.141966 
1106.671778  	52.522410 
1108.103436  	52.373744 
1109.535094  	52.414300 
1110.966752  	53.056905 
1112.398410  	54.048014 
1113.830069  	55.192312 
1115.261727  	56.031744 
1116.693385  	56.488678 
1118.125043  	56.717523 
1119.556701  	56.505125 
1120.988360  	55.935119 
1122.420018  	55.064494 
1123.851676  	53.820911 
1125.283334  	52.400010 
1126.714992  	50.721659 
1128.146650  	48.880526 
1129.578309  	47.042305 
1131.009967  	45.008119 
1132.441625  	42.982830 
1133.873283  	40.855066 
1135.304941  	38.443712 
1136.736600  	36.138489 
1138.168258  	33.631129 
1139.599916  	30.940409 
1141.031574  	28.441478 
1142.463232  	25.678151 
1143.894891  	22.954170 
1145.326549  	20.465438 
1146.758207  	17.827987 
1148.189865  	15.534013 
1149.621523  	13.392467 
1151.053181  	11.240581 
1152.484840  	9.540242 
1153.916498  	7.862309 
1155.348156  	6.465062 
1156.779814  	5.592920 
1158.211472  	4.902976 
1159.643131  	5.101800 
1161.074789  	6.188694 
1162.506447  	8.053477 
1163.938105  	11.261337 
1165.369763  	15.295154 
1166.801421  	20.028536 
1168.233080  	25.205990 
1169.664738  	29.560989 
1171.096396  	32.297042 
1172.528054  	32.450952 
1173.959712  	29.704017 
1175.391371  	25.491334 
1176.823029  	21.103803 
1178.254687  	17.424754 
1179.686345  	14.687301 
1181.118003  	11.973297 
1182.549662  	9.473919 
1183.981320  	7.541338 
1185.412978  	6.153600 
1186.844636  	5.962835 
1188.276294  	6.573831 
1189.707952  	7.744986 
1191.139611  	9.730505 
1192.571269  	11.882506 
1194.002927  	14.425142 
1195.434585  	17.481981 
1196.866243  	20.563789 
1198.297902  	24.003291 
1199.729560  	27.536455 
1201.161218  	30.915217 
1202.592876  	34.312539 
1204.024534  	36.995170 
1205.456193  	38.435124 
1206.887851  	38.093959 
1208.319509  	35.297827 
1209.751167  	30.842224 
1211.182825  	25.805478 
1212.614483  	21.033573 
1214.046142  	17.625261 
1215.477800  	15.353018 
1216.909458  	14.095825 
1218.341116  	13.902490 
1219.772774  	14.032005 
1221.204433  	14.734150 
1222.636091  	15.882505 
1224.067749  	16.984036 
1225.499407  	18.456668 
1226.931065  	19.944350 
1228.362723  	21.354524 
1229.794382  	23.021318 
1231.226040  	24.541593 
1232.657698  	26.165927 
1234.089356  	27.853793 
1235.521014  	29.256577 
1236.952673  	30.873794 
1238.384331  	32.447659 
1239.815989  	33.840906 
1241.247647  	35.483673 
1242.679305  	37.026490 
1244.110964  	38.661282 
1245.542622  	40.613787 
1246.974280  	42.570844 
1248.405938  	44.890054 
1249.837596  	47.532762 
1251.269254  	50.356594 
1252.700913  	53.617923 
1254.132571  	57.009896 
1255.564229  	60.597239 
1256.995887  	64.509826 
1258.427545  	68.379307 
1259.859204  	72.297934 
1261.290862  	76.202234 
1262.722520  	79.779987 
1264.154178  	83.060005 
1265.585836  	85.924983 
1267.017495  	88.270040 
1268.449153  	90.222350 
1269.880811  	91.769848 
1271.312469  	92.923097 
1272.744127  	93.783459 
1274.175785  	94.301411 
1275.607444  	94.544686 
1277.039102  	94.595901 
1278.470760  	94.328500 
1279.902418  	93.834278 
1281.334076  	93.252442 
1282.765735  	92.516610 
1284.197393  	91.671710 
1285.629051  	90.818610 
1287.060709  	90.036480 
1288.492367  	89.350075 
1289.924025  	88.808767 
1291.355684  	88.624046 
1292.787342  	88.890607 
1294.219000  	89.579266 
1295.650658  	90.646357 
1297.082316  	91.984090 
1298.513975  	93.457611 
1299.945633  	94.923619 
1301.377291  	96.183344 
1302.808949  	97.148219 
1304.240607  	97.805941 
1305.672266  	97.967563 
1307.103924  	97.666664 
1308.535582  	97.216303 
1309.967240  	97.077649 
1311.398898  	97.666564 
1312.830556  	98.914154 
1314.262215  	100.436613 
1315.693873  	101.867804 
1317.125531  	102.885996 
1318.557189  	103.551570 
1319.988847  	104.126322 
1321.420506  	104.453582 
1322.852164  	104.629188 
1324.283822  	104.782290 
1325.715480  	104.843677 
1327.147138  	105.022334 
1328.578796  	105.214664 
1330.010455  	105.266196 
1331.442113  	105.373144 
1332.873771  	105.443758 
1334.305429  	105.480533 
1335.737087  	105.540189 
1337.168746  	105.496947 
1338.600404  	105.519148 
1340.032062  	105.554696 
1341.463720  	105.523625 
1342.895378  	105.607693 
1344.327037  	105.615690 
1345.758695  	105.601246 
1347.190353  	105.628792 
1348.622011  	105.480138 
1350.053669  	105.426999 
1351.485327  	105.418302 
1352.916986  	105.219533 
1354.348644  	105.061627 
1355.780302  	104.710734 
1357.211960  	104.110076 
1358.643618  	103.102325 
1360.075277  	100.813071 
1361.506935  	97.190518 
1362.938593  	92.986047 
1364.370251  	90.847295 
1365.801909  	91.908622 
1367.233568  	94.901246 
1368.665226  	98.504674 
1370.096884  	101.319418 
1371.528542  	102.886561 
1372.960200  	103.596696 
1374.391858  	104.080126 
1375.823517  	104.284437 
1377.255175  	104.266738 
1378.686833  	104.131742 
1380.118491  	103.581849 
1381.550149  	102.589580 
1382.981808  	100.870056 
1384.413466  	98.846842 
1385.845124  	97.363450 
1387.276782  	97.080150 
1388.708440  	98.249490 
1390.140098  	99.738653 
1391.571757  	101.219322 
1393.003415  	102.227345 
1394.435073  	102.650552 
1395.866731  	102.826516 
1397.298389  	102.627237 
1398.730048  	102.022414 
1400.161706  	101.233461 
1401.593364  	100.167237 
1403.025022  	98.671664 
1404.456680  	96.811540 
1405.888339  	94.542136 
1407.319997  	92.464345 
1408.751655  	91.313014 
1410.183313  	91.107648 
1411.614971  	92.242629 
1413.046629  	94.451929 
1414.478288  	96.815871 
1415.909946  	99.247920 
1417.341604  	101.202599 
1418.773262  	102.572831 
1420.204920  	103.942922 
1421.636579  	104.518817 
1423.068237  	104.755392 
1424.499895  	105.179229 
1425.931553  	105.357301 
1427.363211  	105.444330 
1428.794870  	105.521620 
1430.226528  	105.419906 
1431.658186  	105.522793 
1433.089844  	105.502184 
1434.521502  	105.293845 
1435.953160  	105.245688 
1437.384819  	104.888043 
1438.816477  	104.486642 
1440.248135  	104.051204 
1441.679793  	103.270234 
1443.111451  	102.687616 
1444.543110  	102.114235 
1445.974768  	101.449865 
1447.406426  	101.016182 
1448.838084  	100.351321 
1450.269742  	99.833911 
1451.701400  	99.692558 
1453.133059  	99.576961 
1454.564717  	99.560620 
1455.996375  	99.303273 
1457.428033  	98.118499 
1458.859691  	96.989650 
1460.291350  	95.558910 
1461.723008  	94.221356 
1463.154666  	93.308711 
1464.586324  	92.661681 
1466.017982  	93.012481 
1467.449641  	93.469132 
1468.881299  	93.998144 
1470.312957  	94.714015 
1471.744615  	94.920994 
1473.176273  	95.453999 
1474.607931  	95.979281 
1476.039590  	95.704478 
1477.471248  	95.748312 
1478.902906  	95.536799 
1480.334564  	94.742441 
1481.766222  	94.033243 
1483.197881  	92.735332 
1484.629539  	90.961416 
1486.061197  	89.104765 
1487.492855  	86.171862 
1488.924513  	82.942421 
1490.356172  	79.400199 
1491.787830  	74.258389 
1493.219488  	69.958619 
1494.651146  	65.703108 
1496.082804  	60.074049 
1497.514462  	54.982104 
1498.946121  	50.152454 
1500.377779  	45.780396 
1501.809437  	43.735643 
1503.241095  	42.559873 
1504.672753  	42.489677 
1506.104412  	45.578692 
1507.536070  	52.505237 
1508.967728  	59.516227 
1510.399386  	66.355746 
1511.831044  	73.468374 
1513.262702  	80.706409 
1514.694361  	86.262700 
1516.126019  	90.337031 
1517.557677  	94.757808 
1518.989335  	97.475111 
1520.420993  	98.649719 
1521.852652  	100.835266 
1523.284310  	102.235693 
1524.715968  	102.585649 
1526.147626  	103.526674 
1527.579284  	104.198978 
1529.010943  	104.611244 
1530.442601  	105.199887 
1531.874259  	105.330995 
1533.305917  	105.569871 
1534.737575  	106.176723 
1536.169233  	106.254607 
1537.600892  	106.430216 
1539.032550  	106.654930 
1540.464208  	106.720265 
1541.895866  	107.158549 
1543.327524  	107.142212 
1544.759183  	107.226305 
1546.190841  	107.610274 
1547.622499  	107.583920 
1549.054157  	107.588707 
1550.485815  	107.809326 
1551.917473  	107.848673 
1553.349132  	107.921707 
1554.780790  	108.003364 
1556.212448  	107.978604 
1557.644106  	107.976686 
1559.075764  	108.007571 
1560.507423  	108.450528 
1561.939081  	108.446599 
1563.370739  	108.310071 
1564.802397  	108.360631 
1566.234055  	108.391506 
1567.665714  	108.281184 
1569.097372  	108.278808 
1570.529030  	108.299680 
1571.960688  	108.271451 
1573.392346  	108.197181 
1574.824004  	108.020907 
1576.255663  	107.949571 
1577.687321  	107.881674 
1579.118979  	107.648531 
1580.550637  	107.410152 
1581.982295  	107.068837 
1583.413954  	106.599714 
1584.845612  	105.974596 
1586.277270  	105.106806 
1587.708928  	104.028221 
1589.140586  	102.796994 
1590.572245  	101.721740 
1592.003903  	100.906011 
1593.435561  	100.486165 
1594.867219  	100.553519 
1596.298877  	100.718014 
1597.730535  	100.828105 
1599.162194  	100.720452 
1600.593852  	100.411297 
1602.025510  	100.265090 
1603.457168  	100.342362 
1604.888826  	100.781903 
1606.320485  	101.565970 
1607.752143  	102.550154 
1609.183801  	103.708447 
1610.615459  	104.689051 
1612.047117  	105.530265 
1613.478775  	106.171364 
1614.910434  	106.500226 
1616.342092  	106.856756 
1617.773750  	107.290428 
1619.205408  	107.475812 
1620.637066  	107.562217 
1622.068725  	107.611748 
1623.500383  	107.826135 
1624.932041  	108.031899 
1626.363699  	108.008450 
1627.795357  	108.087970 
1629.227016  	108.208063 
1630.658674  	108.137214 
1632.090332  	108.061163 
1633.521990  	107.965112 
1634.953648  	107.861920 
1636.385306  	107.913841 
1637.816965  	107.804830 
1639.248623  	107.678923 
1640.680281  	107.650820 
1642.111939  	107.554114 
1643.543597  	107.398550 
1644.975256  	107.264906 
1646.406914  	107.211632 
1647.838572  	107.304863 
1649.270230  	107.240106 
1650.701888  	107.108548 
1652.133547  	107.075503 
1653.565205  	107.354795 
1654.996863  	107.410132 
1656.428521  	107.267003 
1657.860179  	107.186184 
1659.291837  	107.264581 
1660.723496  	107.333446 
1662.155154  	107.347318 
1663.586812  	107.408797 
1665.018470  	107.419070 
1666.450128  	107.447476 
1667.881787  	107.470037 
1669.313445  	107.473952 
1670.745103  	107.723177 
1672.176761  	107.820656 
1673.608419  	107.750078 
1675.040077  	107.922624 
1676.471736  	108.065493 
1677.903394  	107.962971 
1679.335052  	107.921251 
1680.766710  	107.871439 
1682.198368  	107.827382 
1683.630027  	107.805402 
1685.061685  	107.949313 
1686.493343  	107.961827 
1687.925001  	107.727381 
1689.356659  	107.577812 
1690.788318  	107.561552 
1692.219976  	107.330996 
1693.651634  	107.129654 
1695.083292  	106.978197 
1696.514950  	106.818982 
1697.946608  	106.774141 
1699.378267  	106.486140 
1700.809925  	106.275545 
1702.241583  	106.135260 
1703.673241  	105.597086 
1705.104899  	105.301467 
1706.536558  	105.172403 
1707.968216  	104.693254 
1709.399874  	104.479935 
1710.831532  	104.183327 
1712.263190  	103.702875 
1713.694849  	103.456859 
1715.126507  	102.914686 
1716.558165  	102.458211 
1717.989823  	102.389392 
1719.421481  	101.671905 
1720.853139  	101.180371 
1722.284798  	100.628022 
1723.716456  	99.821943 
1725.148114  	99.360057 
1726.579772  	98.669424 
1728.011430  	97.931652 
1729.443089  	97.472187 
1730.874747  	96.677390 
1732.306405  	96.185480 
1733.738063  	95.885271 
1735.169721  	95.053778 
1736.601379  	94.592219 
1738.033038  	93.756477 
1739.464696  	92.843474 
1740.896354  	92.334579 
1742.328012  	91.158566 
1743.759670  	90.159380 
1745.191329  	89.072387 
1746.622987  	87.138908 
1748.054645  	85.516697 
1749.486303  	83.434213 
1750.917961  	80.569259 
1752.349620  	77.731071 
1753.781278  	73.858464 
1755.212936  	69.933130 
1756.644594  	65.572205 
1758.076252  	59.324169 
1759.507910  	53.826820 
1760.939569  	48.562727 
1762.371227  	41.912729 
1763.802885  	37.023032 
1765.234543  	33.657225 
1766.666201  	30.765844 
1768.097860  	30.063587 
1769.529518  	30.071324 
1770.961176  	30.192713 
1772.392834  	32.833592 
1773.824492  	35.215774 
1775.256150  	37.116938 
1776.687809  	40.436460 
1778.119467  	43.220367 
1779.551125  	46.226882 
1780.982783  	50.522544 
1782.414441  	53.878460 
1783.846100  	57.399345 
1785.277758  	61.708195 
1786.709416  	65.398794 
1788.141074  	69.486772 
1789.572732  	73.316600 
1791.004391  	76.634510 
1792.436049  	81.527493 
1793.867707  	85.397195 
1795.299365  	88.121455 
1796.731023  	91.453600 
1798.162681  	93.712608 
1799.594340  	95.792838 
1801.025998  	98.071674 
1802.457656  	99.272751 
1803.889314  	100.815221 
1805.320972  	101.917929 
1806.752631  	102.522713 
1808.184289  	103.729180 
1809.615947  	104.246000 
1811.047605  	104.682756 
1812.479263  	105.437820 
1813.910922  	105.493951 
1815.342580  	106.012158 
1816.774238  	106.452031 
1818.205896  	106.451075 
1819.637554  	107.058517 
1821.069212  	107.147435 
1822.500871  	107.218193 
1823.932529  	107.728119 
1825.364187  	107.448291 
1826.795845  	107.628510 
1828.227503  	107.952437 
1829.659162  	107.696888 
1831.090820  	108.133164 
1832.522478  	108.214230 
1833.954136  	108.178422 
1835.385794  	108.609962 
1836.817452  	108.418584 
1838.249111  	108.486882 
1839.680769  	108.825827 
1841.112427  	108.593232 
1842.544085  	108.778381 
1843.975743  	108.921481 
1845.407402  	108.829492 
1846.839060  	109.132010 
1848.270718  	108.913065 
1849.702376  	108.932025 
1851.134034  	109.108794 
1852.565693  	108.821602 
1853.997351  	109.146950 
1855.429009  	109.274908 
1856.860667  	108.974413 
1858.292325  	109.271429 
1859.723983  	109.166991 
1861.155642  	109.077361 
1862.587300  	109.402784 
1864.018958  	109.209226 
1865.450616  	109.306380 
1866.882274  	109.353451 
1868.313933  	109.033212 
1869.745591  	109.485423 
1871.177249  	109.339311 
1872.608907  	109.065327 
1874.040565  	109.419012 
1875.472224  	109.169066 
1876.903882  	108.989055 
1878.335540  	109.143581 
1879.767198  	108.986089 
1881.198856  	109.217845 
1882.630514  	109.209966 
1884.062173  	108.932086 
1885.493831  	109.039106 
1886.925489  	108.722867 
1888.357147  	108.562497 
1889.788805  	108.674092 
1891.220464  	108.334597 
1892.652122  	108.397767 
1894.083780  	108.289685 
1895.515438  	107.914089 
1896.947096  	108.117972 
1898.378754  	108.013611 
1899.810413  	107.919055 
1901.242071  	108.091396 
1902.673729  	107.935763 
1904.105387  	108.191288 
1905.537045  	108.423438 
1906.968704  	108.444884 
1908.400362  	108.953350 
1909.832020  	109.049100 
1911.263678  	109.184458 
1912.695336  	109.581238 
1914.126995  	109.352106 
1915.558653  	109.667175 
1916.990311  	110.081791 
1918.421969  	109.737638 
1919.853627  	110.034924 
1921.285285  	110.103983 
1922.716944  	109.963425 
1924.148602  	110.384315 
1925.580260  	110.130660 
1927.011918  	110.088366 
1928.443576  	110.441540 
1929.875235  	110.192443 
1931.306893  	110.363540 
1932.738551  	110.467753 
1934.170209  	110.397378 
1935.601867  	110.884895 
1937.033525  	110.549422 
1938.465184  	110.145335 
1939.896842  	110.327386 
1941.328500  	110.204333 
1942.760158  	110.809569 
1944.191816  	111.032132 
1945.623475  	110.430287 
1947.055133  	110.761020 
1948.486791  	110.787467 
1949.918449  	110.587986 
1951.350107  	110.785833 
1952.781766  	110.468405 
1954.213424  	110.793279 
1955.645082  	110.908556 
1957.076740  	110.315059 
1958.508398  	110.988224 
1959.940056  	111.149886 
1961.371715  	110.665801 
1962.803373  	110.855093 
1964.235031  	110.170852 
1965.666689  	110.217328 
1967.098347  	110.959919 
1968.530006  	110.631650 
1969.961664  	110.882391 
1971.393322  	110.631111 
1972.824980  	110.302954 
1974.256638  	111.191440 
1975.688297  	110.721245 
1977.119955  	110.403439 
1978.551613  	111.072157 
1979.983271  	110.918826 
1981.414929  	111.202899 
1982.846587  	110.910249 
1984.278246  	110.499475 
1985.709904  	111.181800 
1987.141562  	110.802638 
1988.573220  	110.480625 
1990.004878  	110.672991 
1991.436537  	110.121686 
1992.868195  	110.872248 
1994.299853  	111.377241 
1995.731511  	110.575334 
1997.163169  	110.722453 
1998.594827  	110.607682 
2000.026486  	110.589661 
2001.458144  	111.124290 
2002.889802  	110.291268 
2004.321460  	110.115781 
2005.753118  	110.572946 
2007.184777  	110.048858 
2008.616435  	110.358980 
2010.048093  	110.369192 
2011.479751  	110.183809 
2012.911409  	110.809566 
2014.343068  	110.460715 
2015.774726  	110.597170 
2017.206384  	110.826495 
2018.638042  	109.893226 
2020.069700  	110.372546 
2021.501358  	110.628398 
2022.933017  	110.280998 
2024.364675  	110.948923 
2025.796333  	110.302809 
2027.227991  	109.857866 
2028.659649  	110.518776 
2030.091308  	110.146795 
2031.522966  	110.328314 
2032.954624  	110.361192 
2034.386282  	109.966856 
2035.817940  	110.603154 
2037.249599  	110.163861 
2038.681257  	109.863929 
2040.112915  	110.385770 
2041.544573  	109.879066 
2042.976231  	110.213172 
2044.407889  	110.645271 
2045.839548  	110.022184 
2047.271206  	110.375688 
2048.702864  	110.557759 
2050.134522  	110.288218 
2051.566180  	110.349840 
2052.997839  	109.959179 
2054.429497  	110.112280 
2055.861155  	110.304610 
2057.292813  	109.914184 
2058.724471  	110.400634 
2060.156129  	110.642365 
2061.587788  	110.476626 
2063.019446  	111.176365 
2064.451104  	111.379298 
2065.882762  	111.142932 
2067.314420  	111.132472 
2068.746079  	110.904115 
2070.177737  	110.919116 
2071.609395  	110.556591 
2073.041053  	110.171862 
2074.472711  	110.677723 
2075.904370  	110.679985 
2077.336028  	110.409224 
2078.767686  	110.625779 
2080.199344  	110.605927 
2081.631002  	110.729316 
2083.062660  	110.799213 
2084.494319  	110.598382 
2085.925977  	110.688558 
2087.357635  	110.540512 
2088.789293  	110.526570 
2090.220951  	110.858640 
2091.652610  	110.724834 
2093.084268  	110.740404 
2094.515926  	110.771581 
2095.947584  	110.626696 
2097.379242  	111.092554 
2098.810901  	111.116747 
2100.242559  	110.738447 
2101.674217  	110.884776 
2103.105875  	110.818449 
2104.537533  	110.962835 
2105.969191  	111.325797 
2107.400850  	111.136034 
2108.832508  	111.174800 
2110.264166  	111.196693 
2111.695824  	110.958136 
2113.127482  	111.020645 
2114.559141  	110.934971 
2115.990799  	111.071495 
2117.422457  	111.354040 
2118.854115  	111.094809 
2120.285773  	111.156780 
2121.717431  	111.227088 
2123.149090  	110.917229 
2124.580748  	111.124100 
2126.012406  	111.129835 
2127.444064  	110.887851 
2128.875722  	111.108183 
2130.307381  	111.084477 
2131.739039  	111.042278 
2133.170697  	111.017594 
2134.602355  	110.663366 
2136.034013  	110.745627 
2137.465672  	110.719315 
2138.897330  	110.545200 
2140.328988  	110.811695 
2141.760646  	110.799058 
2143.192304  	110.837097 
2144.623962  	110.670720 
2146.055621  	110.219509 
2147.487279  	110.674878 
2148.918937  	110.566495 
2150.350595  	109.931902 
2151.782253  	110.127671 
2153.213912  	109.753413 
2154.645570  	109.742829 
2156.077228  	110.336270 
2157.508886  	109.729452 
2158.940544  	109.698165 
2160.372202  	109.706022 
2161.803861  	109.316499 
2163.235519  	110.114762 
2164.667177  	110.075035 
2166.098835  	109.644705 
2167.530493  	109.938119 
2168.962152  	109.974293 
2170.393810  	110.557002 
2171.825468  	110.762230 
2173.257126  	110.141013 
2174.688784  	110.190976 
2176.120443  	109.821834 
2177.552101  	109.628077 
2178.983759  	110.210781 
2180.415417  	109.989766 
2181.847075  	110.243784 
2183.278733  	110.500730 
2184.710392  	109.611898 
2186.142050  	109.792298 
2187.573708  	110.083630 
2189.005366  	109.666962 
2190.437024  	110.049867 
2191.868683  	110.080403 
2193.300341  	109.594421 
2194.731999  	109.438531 
2196.163657  	109.259864 
2197.595315  	109.507513 
2199.026974  	109.734733 
2200.458632  	109.653725 
2201.890290  	109.872799 
2203.321948  	109.825884 
2204.753606  	109.866001 
2206.185264  	109.993968 
2207.616923  	109.503802 
2209.048581  	109.445162 
2210.480239  	109.662660 
2211.911897  	109.504456 
2213.343555  	109.505342 
2214.775214  	109.257619 
2216.206872  	109.089124 
2217.638530  	109.313122 
2219.070188  	109.185129 
2220.501846  	109.120139 
2221.933504  	109.110727 
2223.365163  	108.901954 
2224.796821  	108.896892 
2226.228479  	108.663100 
2227.660137  	108.592217 
2229.091795  	108.895729 
2230.523454  	108.694511 
2231.955112  	108.605880 
2233.386770  	108.888092 
2234.818428  	108.971688 
2236.250086  	109.076119 
2237.681745  	108.954905 
2239.113403  	108.810379 
2240.545061  	108.978621 
2241.976719  	109.000245 
2243.408377  	109.204851 
2244.840035  	109.436898 
2246.271694  	109.345087 
2247.703352  	109.487872 
2249.135010  	109.398570 
2250.566668  	109.164987 
2251.998326  	109.463067 
2253.429985  	109.554264 
2254.861643  	109.498615 
2256.293301  	109.657457 
2257.724959  	109.653996 
2259.156617  	109.854092 
2260.588276  	110.084156 
2262.019934  	110.086246 
2263.451592  	110.222999 
2264.883250  	110.196058 
2266.314908  	110.287973 
2267.746566  	110.672779 
2269.178225  	110.656137 
2270.609883  	110.478422 
2272.041541  	110.300127 
2273.473199  	110.267450 
2274.904857  	110.763048 
2276.336516  	110.911150 
2277.768174  	110.625929 
2279.199832  	110.710996 
2280.631490  	110.752041 
2282.063148  	110.663794 
2283.494806  	110.769715 
2284.926465  	110.927456 
2286.358123  	111.039401 
2287.789781  	110.896916 
2289.221439  	110.843387 
2290.653097  	111.145330 
2292.084756  	111.156530 
2293.516414  	110.995434 
2294.948072  	111.038896 
2296.379730  	110.990476 
2297.811388  	110.984575 
2299.243047  	111.051329 
2300.674705  	110.972527 
2302.106363  	110.912052 
2303.538021  	110.891251 
2304.969679  	110.939129 
2306.401337  	110.996840 
2307.832996  	110.882624 
2309.264654  	110.824146 
2310.696312  	110.808920 
2312.127970  	110.731415 
2313.559628  	110.755132 
2314.991287  	110.731426 
2316.422945  	110.702302 
2317.854603  	110.721517 
2319.286261  	110.577587 
2320.717919  	110.501238 
2322.149577  	110.533394 
2323.581236  	110.575207 
2325.012894  	110.711429 
2326.444552  	110.603331 
2327.876210  	110.347418 
2329.307868  	110.306864 
2330.739527  	110.281411 
2332.171185  	110.307502 
2333.602843  	110.385377 
2335.034501  	110.363987 
2336.466159  	110.426051 
2337.897818  	110.375609 
2339.329476  	110.267590 
2340.761134  	110.342989 
2342.192792  	110.260114 
2343.624450  	110.269251 
2345.056108  	110.494967 
2346.487767  	110.576873 
2347.919425  	110.797685 
2349.351083  	110.912542 
2350.782741  	110.612605 
2352.214399  	110.394165 
2353.646058  	110.396062 
2355.077716  	110.272137 
2356.509374  	110.158244 
2357.941032  	110.005088 
2359.372690  	109.928886 
2360.804349  	109.980498 
2362.236007  	109.934044 
2363.667665  	110.035526 
2365.099323  	110.149935 
2366.530981  	110.136520 
2367.962639  	110.225906 
2369.394298  	110.249506 
2370.825956  	110.312911 
2372.257614  	110.436012 
2373.689272  	110.387276 
2375.120930  	110.429670 
2376.552589  	110.522273 
2377.984247  	110.514627 
2379.415905  	110.619722 
2380.847563  	110.755749 
2382.279221  	110.846157 
2383.710879  	110.912685 
2385.142538  	110.891108 
2386.574196  	110.927691 
2388.005854  	110.948508 
2389.437512  	110.808287 
2390.869170  	110.751812 
2392.300829  	110.770672 
2393.732487  	110.712646 
2395.164145  	110.697128 
2396.595803  	110.725971 
2398.027461  	110.721263 
2399.459120  	110.716442 
2400.890778  	110.749691 
2402.322436  	110.723018 
2403.754094  	110.580701 
2405.185752  	110.570199 
2406.617410  	110.666669 
2408.049069  	110.607957 
2409.480727  	110.517766 
2410.912385  	110.470796 
2412.344043  	110.494880 
2413.775701  	110.624198 
2415.207360  	110.596462 
2416.639018  	110.564342 
2418.070676  	110.754925 
2419.502334  	110.826287 
2420.933992  	110.762930 
2422.365651  	110.717204 
2423.797309  	110.643698 
2425.228967  	110.694025 
2426.660625  	110.802376 
2428.092283  	110.820810 
2429.523941  	110.793359 
2430.955600  	110.728165 
2432.387258  	110.806266 
2433.818916  	110.957387 
2435.250574  	110.910880 
2436.682232  	110.851016 
2438.113891  	110.893856 
2439.545549  	110.967138 
2440.977207  	110.978445 
2442.408865  	110.848393 
2443.840523  	110.888547 
2445.272181  	111.030122 
2446.703840  	110.908216 
2448.135498  	110.855883 
2449.567156  	110.961905 
2450.998814  	110.962317 
2452.430472  	110.981876 
2453.862131  	111.009087 
2455.293789  	111.031763 
2456.725447  	111.059678 
2458.157105  	110.963371 
2459.588763  	110.941702 
2461.020422  	110.979068 
2462.452080  	110.918404 
2463.883738  	110.988717 
2465.315396  	111.075933 
2466.747054  	111.000077 
2468.178712  	110.934675 
2469.610371  	110.908284 
2471.042029  	110.941569 
2472.473687  	110.984011 
2473.905345  	110.977574 
2475.337003  	110.998024 
2476.768662  	110.904973 
2478.200320  	110.805718 
2479.631978  	110.885431 
2481.063636  	110.937151 
2482.495294  	111.003757 
2483.926953  	111.061958 
2485.358611  	110.998134 
2486.790269  	111.082492 
2488.221927  	111.212889 
2489.653585  	111.263494 
2491.085243  	111.354949 
2492.516902  	111.270820 
2493.948560  	111.180165 
2495.380218  	111.238808 
2496.811876  	111.180989 
2498.243534  	111.272166 
2499.675193  	111.500416 
2501.106851  	111.494140 
2502.538509  	111.483388 
2503.970167  	111.497134 
2505.401825  	111.441958 
2506.833483  	111.469038 
2508.265142  	111.481925 
2509.696800  	111.510588 
2511.128458  	111.557727 
2512.560116  	111.521807 
2513.991774  	111.568097 
2515.423433  	111.599385 
2516.855091  	111.534502 
2518.286749  	111.547141 
2519.718407  	111.589947 
2521.150065  	111.667261 
2522.581724  	111.684178 
2524.013382  	111.584216 
2525.445040  	111.627319 
2526.876698  	111.701485 
2528.308356  	111.737083 
2529.740014  	111.791741 
2531.171673  	111.614968 
2532.603331  	111.487801 
2534.034989  	111.582820 
2535.466647  	111.577858 
2536.898305  	111.715024 
2538.329964  	111.920211 
2539.761622  	111.819567 
2541.193280  	111.752392 
2542.624938  	111.758385 
2544.056596  	111.661599 
2545.488254  	111.663281 
2546.919913  	111.761157 
2548.351571  	111.874334 
2549.783229  	111.913152 
2551.214887  	111.884741 
2552.646545  	111.968038 
2554.078204  	112.018016 
2555.509862  	112.011274 
2556.941520  	112.012895 
2558.373178  	111.878474 
2559.804836  	111.881032 
2561.236495  	112.041790 
2562.668153  	112.024661 
2564.099811  	112.007374 
2565.531469  	111.971402 
2566.963127  	111.823651 
2568.394785  	111.808885 
2569.826444  	111.828664 
2571.258102  	111.859021 
2572.689760  	111.940854 
2574.121418  	111.869568 
2575.553076  	111.816150 
2576.984735  	111.862800 
2578.416393  	111.854762 
2579.848051  	111.887690 
2581.279709  	111.878867 
2582.711367  	111.794441 
2584.143026  	111.808229 
2585.574684  	111.827061 
2587.006342  	111.763417 
2588.438000  	111.676373 
2589.869658  	111.676065 
2591.301316  	111.767807 
2592.732975  	111.782231 
2594.164633  	111.828519 
2595.596291  	111.929057 
2597.027949  	111.879694 
2598.459607  	111.891470 
2599.891266  	112.005145 
2601.322924  	112.008170 
2602.754582  	112.019975 
2604.186240  	112.002375 
2605.617898  	111.909950 
2607.049556  	111.895503 
2608.481215  	111.885832 
2609.912873  	111.888918 
2611.344531  	111.943345 
2612.776189  	111.962115 
2614.207847  	112.012684 
2615.639506  	112.067560 
2617.071164  	112.053346 
2618.502822  	112.010196 
2619.934480  	111.971026 
2621.366138  	112.034059 
2622.797797  	112.114733 
2624.229455  	112.128830 
2625.661113  	112.205493 
2627.092771  	112.242574 
2628.524429  	112.239901 
2629.956087  	112.310121 
2631.387746  	112.275221 
2632.819404  	112.229661 
2634.251062  	112.294934 
2635.682720  	112.292732 
2637.114378  	112.287900 
2638.546037  	112.293238 
2639.977695  	112.272188 
2641.409353  	112.351142 
2642.841011  	112.378098 
2644.272669  	112.309605 
2645.704328  	112.299790 
2647.135986  	112.272852 
2648.567644  	112.246506 
2649.999302  	112.240480 
2651.430960  	112.218189 
2652.862618  	112.261199 
2654.294277  	112.265531 
2655.725935  	112.233453 
2657.157593  	112.284359 
2658.589251  	112.261270 
2660.020909  	112.185889 
2661.452568  	112.161298 
2662.884226  	112.112554 
2664.315884  	112.131171 
2665.747542  	112.192460 
2667.179200  	112.165942 
2668.610858  	112.134682 
2670.042517  	112.116196 
2671.474175  	112.113027 
2672.905833  	112.134870 
2674.337491  	112.134067 
2675.769149  	112.178872 
2677.200808  	112.213541 
2678.632466  	112.194698 
2680.064124  	112.216979 
2681.495782  	112.151189 
2682.927440  	112.043230 
2684.359099  	112.096072 
2685.790757  	112.162769 
2687.222415  	112.170459 
2688.654073  	112.175510 
2690.085731  	112.143763 
2691.517389  	112.124635 
2692.949048  	112.099617 
2694.380706  	112.083122 
2695.812364  	112.126808 
2697.244022  	112.116903 
2698.675680  	112.096316 
2700.107339  	112.119766 
2701.538997  	112.095464 
2702.970655  	112.076754 
2704.402313  	112.045035 
2705.833971  	111.979007 
2707.265630  	111.975036 
2708.697288  	111.971281 
2710.128946  	111.961117 
2711.560604  	111.956804 
2712.992262  	111.902198 
2714.423920  	111.898250 
2715.855579  	111.912292 
2717.287237  	111.901413 
2718.718895  	111.958734 
2720.150553  	111.961604 
2721.582211  	111.943802 
2723.013870  	112.017303 
2724.445528  	111.993237 
2725.877186  	111.922958 
2727.308844  	111.941829 
2728.740502  	111.949235 
2730.172160  	111.953667 
2731.603819  	111.950601 
2733.035477  	111.935881 
2734.467135  	111.942230 
2735.898793  	111.921825 
2737.330451  	111.981125 
2738.762110  	112.065277 
2740.193768  	111.986387 
2741.625426  	111.945370 
2743.057084  	112.026867 
2744.488742  	112.074464 
2745.920401  	112.078336 
2747.352059  	112.030101 
2748.783717  	112.025264 
2750.215375  	112.077213 
2751.647033  	112.031646 
2753.078691  	112.009873 
2754.510350  	112.031615 
2755.942008  	111.967409 
2757.373666  	111.932278 
2758.805324  	111.894530 
2760.236982  	111.818253 
2761.668641  	111.820294 
2763.100299  	111.798986 
2764.531957  	111.753482 
2765.963615  	111.770125 
2767.395273  	111.746439 
2768.826931  	111.696283 
2770.258590  	111.654131 
2771.690248  	111.577997 
2773.121906  	111.516693 
2774.553564  	111.504317 
2775.985222  	111.531988 
2777.416881  	111.520991 
2778.848539  	111.468781 
2780.280197  	111.511685 
2781.711855  	111.558394 
2783.143513  	111.523066 
2784.575172  	111.548804 
2786.006830  	111.614977 
2787.438488  	111.647307 
2788.870146  	111.678870 
2790.301804  	111.709050 
2791.733462  	111.712514 
2793.165121  	111.659462 
2794.596779  	111.648465 
2796.028437  	111.705919 
2797.460095  	111.677681 
2798.891753  	111.661012 
2800.323412  	111.709125 
2801.755070  	111.671272 
2803.186728  	111.643119 
2804.618386  	111.634283 
2806.050044  	111.574094 
2807.481703  	111.579103 
2808.913361  	111.577841 
2810.345019  	111.547681 
2811.776677  	111.585169 
2813.208335  	111.595932 
2814.639993  	111.613027 
2816.071652  	111.638059 
2817.503310  	111.572386 
2818.934968  	111.552415 
2820.366626  	111.578320 
2821.798284  	111.570526 
2823.229943  	111.581778 
2824.661601  	111.556624 
2826.093259  	111.551523 
2827.524917  	111.574305 
2828.956575  	111.489163 
2830.388233  	111.451654 
2831.819892  	111.517376 
2833.251550  	111.544109 
2834.683208  	111.542434 
2836.114866  	111.457380 
2837.546524  	111.349666 
2838.978183  	111.338866 
2840.409841  	111.287195 
2841.841499  	111.201644 
2843.273157  	111.151866 
2844.704815  	111.073468 
2846.136474  	110.987171 
2847.568132  	110.861919 
2848.999790  	110.740047 
2850.431448  	110.683185 
2851.863106  	110.551065 
2853.294764  	110.407647 
2854.726423  	110.318774 
2856.158081  	110.154971 
2857.589739  	110.004189 
2859.021397  	109.855903 
2860.453055  	109.573336 
2861.884714  	109.211127 
2863.316372  	108.740082 
2864.748030  	108.192739 
2866.179688  	107.658501 
2867.611346  	107.027875 
2869.043005  	106.378533 
2870.474663  	105.896564 
2871.906321  	105.563741 
2873.337979  	105.386977 
2874.769637  	105.388652 
2876.201295  	105.555163 
2877.632954  	105.893718 
2879.064612  	106.301099 
2880.496270  	106.683073 
2881.927928  	107.030134 
2883.359586  	107.293871 
2884.791245  	107.464615 
2886.222903  	107.574597 
2887.654561  	107.614228 
2889.086219  	107.543669 
2890.517877  	107.422818 
2891.949535  	107.400776 
2893.381194  	107.454930 
2894.812852  	107.536733 
2896.244510  	107.697418 
2897.676168  	107.823737 
2899.107826  	107.847781 
2900.539485  	107.864535 
2901.971143  	107.840995 
2903.402801  	107.732177 
2904.834459  	107.543385 
2906.266117  	107.307865 
2907.697776  	107.128525 
2909.129434  	106.960314 
2910.561092  	106.769893 
2911.992750  	106.684957 
2913.424408  	106.681125 
2914.856066  	106.694092 
2916.287725  	106.764008 
2917.719383  	106.823014 
2919.151041  	106.762052 
2920.582699  	106.585376 
2922.014357  	106.366116 
2923.446016  	106.088151 
2924.877674  	105.678977 
2926.309332  	105.226862 
2927.740990  	104.809733 
2929.172648  	104.380362 
2930.604306  	103.956463 
2932.035965  	103.613191 
2933.467623  	103.433630 
2934.899281  	103.388763 
2936.330939  	103.368467 
2937.762597  	103.422176 
2939.194256  	103.555576 
2940.625914  	103.673114 
2942.057572  	103.801624 
2943.489230  	103.892977 
2944.920888  	103.916507 
2946.352547  	103.977168 
2947.784205  	103.980932 
2949.215863  	103.842859 
2950.647521  	103.633397 
2952.079179  	103.277245 
2953.510837  	102.715539 
2954.942496  	101.997741 
2956.374154  	101.098697 
2957.805812  	99.949093 
2959.237470  	98.576278 
2960.669128  	97.138489 
2962.100787  	95.721638 
2963.532445  	94.421133 
2964.964103  	93.399543 
2966.395761  	92.627795 
2967.827419  	92.150943 
2969.259078  	92.125519 
2970.690736  	92.436476 
2972.122394  	92.973536 
2973.554052  	93.785249 
2974.985710  	94.794268 
2976.417368  	95.898208 
2977.849027  	97.027857 
2979.280685  	98.124085 
2980.712343  	99.254370 
2982.144001  	100.379870 
2983.575659  	101.404642 
2985.007318  	102.401464 
2986.438976  	103.352982 
2987.870634  	104.211717 
2989.302292  	104.993447 
2990.733950  	105.680262 
2992.165608  	106.355101 
2993.597267  	106.981235 
2995.028925  	107.473087 
2996.460583  	107.939186 
2997.892241  	108.345578 
2999.323899  	108.727954 
3000.755558  	109.179854 
3002.187216  	109.490967 
3003.618874  	109.727291 
3005.050532  	110.048622 
3006.482190  	110.261433 
3007.913849  	110.429037 
3009.345507  	110.616555 
3010.777165  	110.684986 
3012.208823  	110.803020 
3013.640481  	111.020981 
3015.072139  	111.147644 
3016.503798  	111.186240 
3017.935456  	111.205995 
3019.367114  	111.265115 
3020.798772  	111.320359 
3022.230430  	111.297749 
3023.662089  	111.283532 
3025.093747  	111.271345 
3026.525405  	111.215817 
3027.957063  	111.093729 
3029.388721  	110.802303 
3030.820380  	110.450077 
3032.252038  	110.139875 
3033.683696  	109.773958 
3035.115354  	109.411604 
3036.547012  	109.103162 
3037.978670  	108.815016 
3039.410329  	108.598300 
3040.841987  	108.453538 
3042.273645  	108.427608 
3043.705303  	108.570895 
3045.136961  	108.750868 
3046.568620  	108.885640 
3048.000278  	109.013831 
3049.431936  	109.161107 
3050.863594  	109.273994 
3052.295252  	109.223834 
3053.726910  	109.067855 
3055.158569  	108.981995 
3056.590227  	108.965530 
3058.021885  	108.928207 
3059.453543  	108.861091 
3060.885201  	108.876374 
3062.316860  	108.978054 
3063.748518  	109.045229 
3065.180176  	109.157266 
3066.611834  	109.330554 
3068.043492  	109.459498 
3069.475151  	109.647093 
3070.906809  	109.836472 
3072.338467  	109.907337 
3073.770125  	110.021557 
3075.201783  	110.154663 
3076.633441  	110.201873 
3078.065100  	110.294470 
3079.496758  	110.465753 
3080.928416  	110.629011 
3082.360074  	110.716350 
3083.791732  	110.773120 
3085.223391  	110.915550 
3086.655049  	111.055173 
3088.086707  	111.130203 
3089.518365  	111.209792 
3090.950023  	111.288651 
3092.381682  	111.431698 
3093.813340  	111.585935 
3095.244998  	111.608885 
3096.676656  	111.618020 
3098.108314  	111.637259 
3099.539972  	111.597396 
3100.971631  	111.573989 
3102.403289  	111.548401 
3103.834947  	111.555535 
3105.266605  	111.634038 
3106.698263  	111.654042 
3108.129922  	111.635853 
3109.561580  	111.638212 
3110.993238  	111.637152 
3112.424896  	111.657007 
3113.856554  	111.666961 
3115.288212  	111.687246 
3116.719871  	111.723100 
3118.151529  	111.725876 
3119.583187  	111.794787 
3121.014845  	111.868382 
3122.446503  	111.833634 
3123.878162  	111.839134 
3125.309820  	111.918694 
3126.741478  	112.019949 
3128.173136  	112.100877 
3129.604794  	112.095049 
3131.036453  	112.185571 
3132.468111  	112.412681 
3133.899769  	112.538731 
3135.331427  	112.529277 
3136.763085  	112.435871 
3138.194743  	112.395211 
3139.626402  	112.506057 
3141.058060  	112.555508 
3142.489718  	112.523029 
3143.921376  	112.536144 
3145.353034  	112.557745 
3146.784693  	112.612518 
3148.216351  	112.638807 
3149.648009  	112.617940 
3151.079667  	112.648448 
3152.511325  	112.636636 
3153.942983  	112.632005 
3155.374642  	112.684749 
3156.806300  	112.654163 
3158.237958  	112.666320 
3159.669616  	112.726619 
3161.101274  	112.695010 
3162.532933  	112.684259 
3163.964591  	112.659826 
3165.396249  	112.643748 
3166.827907  	112.699590 
3168.259565  	112.634410 
3169.691224  	112.610450 
3171.122882  	112.719896 
3172.554540  	112.684192 
3173.986198  	112.679982 
3175.417856  	112.788502 
3176.849514  	112.771367 
3178.281173  	112.737627 
3179.712831  	112.702541 
3181.144489  	112.628435 
3182.576147  	112.658144 
3184.007805  	112.682576 
3185.439464  	112.644065 
3186.871122  	112.632811 
3188.302780  	112.631754 
3189.734438  	112.677385 
3191.166096  	112.702183 
3192.597755  	112.651744 
3194.029413  	112.653939 
3195.461071  	112.680870 
3196.892729  	112.689558 
3198.324387  	112.712395 
3199.756045  	112.703774 
3201.187704  	112.697483 
3202.619362  	112.702657 
3204.051020  	112.690055 
3205.482678  	112.711949 
3206.914336  	112.739289 
3208.345995  	112.737017 
3209.777653  	112.740792 
3211.209311  	112.774882 
3212.640969  	112.836680 
3214.072627  	112.867970 
3215.504285  	112.889816 
3216.935944  	112.906855 
3218.367602  	112.828794 
3219.799260  	112.780156 
3221.230918  	112.848310 
3222.662576  	112.899768 
3224.094235  	112.929916 
3225.525893  	112.927945 
3226.957551  	112.878908 
3228.389209  	112.885310 
3229.820867  	112.924907 
3231.252526  	112.952612 
3232.684184  	112.935568 
3234.115842  	112.860675 
3235.547500  	112.864745 
3236.979158  	112.900376 
3238.410816  	112.891934 
3239.842475  	112.961073 
3241.274133  	112.999984 
3242.705791  	112.952886 
3244.137449  	112.964173 
3245.569107  	112.931006 
3247.000766  	112.837320 
3248.432424  	112.829162 
3249.864082  	112.863511 
3251.295740  	112.911322 
3252.727398  	112.966712 
3254.159057  	112.989959 
3255.590715  	112.983928 
3257.022373  	112.919312 
3258.454031  	112.862059 
3259.885689  	112.902507 
3261.317347  	112.959677 
3262.749006  	112.951829 
3264.180664  	112.897298 
3265.612322  	112.901079 
3267.043980  	112.994034 
3268.475638  	113.020483 
3269.907297  	112.938551 
3271.338955  	112.855003 
3272.770613  	112.848646 
3274.202271  	112.942296 
3275.633929  	113.014889 
3277.065587  	112.993880 
3278.497246  	112.954638 
3279.928904  	112.938065 
3281.360562  	112.978334 
3282.792220  	113.010879 
3284.223878  	112.987812 
3285.655537  	113.019631 
3287.087195  	113.020094 
3288.518853  	112.951042 
3289.950511  	112.987274 
3291.382169  	113.020922 
3292.813828  	113.010752 
3294.245486  	113.088245 
3295.677144  	113.050418 
3297.108802  	112.900336 
3298.540460  	112.947814 
3299.972118  	113.079896 
3301.403777  	113.063082 
3302.835435  	112.991883 
3304.267093  	112.968925 
3305.698751  	112.965079 
3307.130409  	112.994880 
3308.562068  	113.088228 
3309.993726  	113.165377 
3311.425384  	113.173183 
3312.857042  	113.130265 
3314.288700  	113.036556 
3315.720359  	112.994447 
3317.152017  	113.046103 
3318.583675  	113.070912 
3320.015333  	113.071384 
3321.446991  	113.074591 
3322.878649  	113.067938 
3324.310308  	113.124803 
3325.741966  	113.176660 
3327.173624  	113.126818 
3328.605282  	113.089051 
3330.036940  	113.120886 
3331.468599  	113.129646 
3332.900257  	113.064504 
3334.331915  	113.017675 
3335.763573  	113.052624 
3337.195231  	113.070836 
3338.626889  	113.072807 
3340.058548  	113.113487 
3341.490206  	113.141031 
3342.921864  	113.161409 
3344.353522  	113.143974 
3345.785180  	113.111824 
3347.216839  	113.197572 
3348.648497  	113.244715 
3350.080155  	113.135971 
3351.511813  	113.081111 
3352.943471  	113.134079 
3354.375130  	113.204350 
3355.806788  	113.218976 
3357.238446  	113.146888 
3358.670104  	113.110289 
3360.101762  	113.132908 
3361.533420  	113.148791 
3362.965079  	113.156941 
3364.396737  	113.152970 
3365.828395  	113.208385 
3367.260053  	113.237943 
3368.691711  	113.118705 
3370.123370  	113.077995 
3371.555028  	113.156717 
3372.986686  	113.198957 
3374.418344  	113.237865 
3375.850002  	113.206283 
3377.281660  	113.163134 
3378.713319  	113.243333 
3380.144977  	113.266950 
3381.576635  	113.209921 
3383.008293  	113.165074 
3384.439951  	113.151268 
3385.871610  	113.287824 
3387.303268  	113.397805 
3388.734926  	113.328726 
3390.166584  	113.272127 
3391.598242  	113.197294 
3393.029901  	113.100845 
3394.461559  	113.098992 
3395.893217  	113.083267 
3397.324875  	113.090067 
3398.756533  	113.156022 
3400.188191  	113.155957 
3401.619850  	113.121206 
3403.051508  	113.084966 
3404.483166  	113.094163 
3405.914824  	113.144297 
3407.346482  	113.145141 
3408.778141  	113.207992 
3410.209799  	113.274229 
3411.641457  	113.229830 
3413.073115  	113.259979 
3414.504773  	113.275186 
3415.936432  	113.203657 
3417.368090  	113.229775 
3418.799748  	113.212414 
3420.231406  	113.135771 
3421.663064  	113.151996 
3423.094722  	113.129207 
3424.526381  	113.116482 
3425.958039  	113.170426 
3427.389697  	113.165278 
3428.821355  	113.150653 
3430.253013  	113.147352 
3431.684672  	113.167125 
3433.116330  	113.240440 
3434.547988  	113.258160 
3435.979646  	113.253589 
3437.411304  	113.261472 
3438.842962  	113.215831 
3440.274621  	113.149713 
3441.706279  	113.064713 
3443.137937  	113.038471 
3444.569595  	113.094017 
3446.001253  	113.098442 
3447.432912  	113.144230 
3448.864570  	113.209302 
3450.296228  	113.189422 
3451.727886  	113.216175 
3453.159544  	113.170679 
3454.591203  	113.044664 
3456.022861  	113.055618 
3457.454519  	113.034171 
3458.886177  	112.980541 
3460.317835  	113.073947 
3461.749493  	113.136092 
3463.181152  	113.127743 
3464.612810  	113.107445 
3466.044468  	113.072724 
3467.476126  	113.134280 
3468.907784  	113.195685 
3470.339443  	113.172509 
3471.771101  	113.123128 
3473.202759  	113.027768 
3474.634417  	113.021096 
3476.066075  	113.092439 
3477.497734  	113.056614 
3478.929392  	112.989452 
3480.361050  	112.907423 
3481.792708  	112.866892 
3483.224366  	112.996090 
3484.656024  	113.085186 
3486.087683  	113.099714 
3487.519341  	113.127992 
3488.950999  	113.035835 
3490.382657  	112.939486 
3491.814315  	112.959849 
3493.245974  	112.984621 
3494.677632  	113.021997 
3496.109290  	113.073252 
3497.540948  	113.072703 
3498.972606  	112.981347 
3500.404264  	112.853953 
3501.835923  	112.854320 
3503.267581  	112.902165 
3504.699239  	112.845283 
3506.130897  	112.829312 
3507.562555  	112.858045 
3508.994214  	112.834482 
3510.425872  	112.783703 
3511.857530  	112.742856 
3513.289188  	112.740486 
3514.720846  	112.732632 
3516.152505  	112.702993 
3517.584163  	112.695219 
3519.015821  	112.658767 
3520.447479  	112.597883 
3521.879137  	112.521888 
3523.310795  	112.456291 
3524.742454  	112.475859 
3526.174112  	112.385167 
3527.605770  	112.245579 
3529.037428  	112.342279 
3530.469086  	112.421166 
3531.900745  	112.421383 
3533.332403  	112.501563 
3534.764061  	112.492039 
3536.195719  	112.542820 
3537.627377  	112.666649 
3539.059035  	112.533272 
3540.490694  	112.444299 
3541.922352  	112.525939 
3543.354010  	112.478362 
3544.785668  	112.438991 
3546.217326  	112.517323 
3547.648985  	112.581435 
3549.080643  	112.627395 
3550.512301  	112.607322 
3551.943959  	112.594546 
3553.375617  	112.647000 
3554.807276  	112.678331 
3556.238934  	112.707917 
3557.670592  	112.687425 
3559.102250  	112.674861 
3560.533908  	112.776230 
3561.965566  	112.811525 
3563.397225  	112.748956 
3564.828883  	112.638477 
3566.260541  	112.479907 
3567.692199  	112.594213 
3569.123857  	112.829190 
3570.555516  	112.784648 
3571.987174  	112.739244 
3573.418832  	112.761153 
3574.850490  	112.746247 
3576.282148  	112.759208 
3577.713807  	112.854663 
3579.145465  	113.005145 
3580.577123  	113.062684 
3582.008781  	112.969569 
3583.440439  	112.863339 
3584.872097  	112.744400 
3586.303756  	112.658982 
3587.735414  	112.817712 
3589.167072  	113.083678 
3590.598730  	113.122209 
3592.030388  	113.037506 
3593.462047  	112.966329 
3594.893705  	112.972099 
3596.325363  	113.032015 
3597.757021  	113.085364 
3599.188679  	113.063955 
3600.620337  	113.094214 
3602.051996  	113.238427 
3603.483654  	113.227315 
3604.915312  	113.220051 
3606.346970  	113.362462 
3607.778628  	113.304983 
3609.210287  	113.203822 
3610.641945  	113.279058 
3612.073603  	113.150860 
3613.505261  	113.125698 
3614.936919  	113.340198 
3616.368578  	113.246933 
3617.800236  	113.065827 
3619.231894  	113.163956 
3620.663552  	113.426444 
3622.095210  	113.482241 
3623.526868  	113.321396 
3624.958527  	113.215620 
3626.390185  	113.097968 
3627.821843  	112.815032 
3629.253501  	112.944401 
3630.685159  	113.345683 
3632.116818  	113.151853 
3633.548476  	113.078088 
3634.980134  	113.181055 
3636.411792  	113.171921 
3637.843450  	113.222468 
3639.275109  	113.251862 
3640.706767  	113.179465 
3642.138425  	113.202756 
3643.570083  	113.188434 
3645.001741  	113.006639 
3646.433399  	112.825732 
3647.865058  	112.746671 
3649.296716  	112.622620 
3650.728374  	112.661214 
3652.160032  	113.163136 
3653.591690  	113.214057 
3655.023349  	112.864230 
3656.455007  	112.795249 
3657.886665  	113.043060 
3659.318323  	113.011713 
3660.749981  	112.994482 
3662.181639  	112.997889 
3663.613298  	112.904046 
3665.044956  	112.906682 
3666.476614  	112.887605 
3667.908272  	112.680740 
3669.339930  	112.479988 
3670.771589  	112.557180 
3672.203247  	112.595241 
3673.634905  	112.388497 
3675.066563  	112.443722 
3676.498221  	113.121102 
3677.929880  	113.061043 
3679.361538  	112.959228 
3680.793196  	113.103460 
3682.224854  	113.060895 
3683.656512  	113.013064 
3685.088170  	112.974988 
3686.519829  	112.760658 
3687.951487  	112.758166 
3689.383145  	113.147079 
3690.814803  	113.312368 
3692.246461  	113.423902 
3693.678120  	113.479037 
3695.109778  	113.304394 
3696.541436  	113.158280 
3697.973094  	113.179607 
3699.404752  	113.187300 
3700.836411  	113.187032 
3702.268069  	113.329326 
3703.699727  	113.435432 
3705.131385  	113.396189 
3706.563043  	113.340345 
3707.994701  	113.264715 
3709.426360  	113.183952 
3710.858018  	113.123064 
3712.289676  	113.153340 
3713.721334  	113.459205 
3715.152992  	113.613457 
3716.584651  	113.480634 
3718.016309  	113.451250 
3719.447967  	113.489880 
3720.879625  	113.303635 
3722.311283  	113.179950 
3723.742941  	113.260290 
3725.174600  	113.293195 
3726.606258  	113.377741 
3728.037916  	113.487690 
3729.469574  	113.369766 
3730.901232  	113.257708 
3732.332891  	113.362019 
3733.764549  	113.264709 
3735.196207  	113.073451 
3736.627865  	113.625478 
3738.059523  	113.828261 
3739.491182  	113.498878 
3740.922840  	113.510502 
3742.354498  	113.406026 
3743.786156  	113.013830 
3745.217814  	113.522226 
3746.649472  	113.727153 
3748.081131  	113.250507 
3749.512789  	113.229597 
3750.944447  	113.437773 
3752.376105  	113.406237 
3753.807763  	113.574198 
3755.239422  	113.514306 
3756.671080  	113.454461 
3758.102738  	113.549660 
3759.534396  	113.510200 
3760.966054  	113.624435 
3762.397712  	113.713118 
3763.829371  	113.524374 
3765.261029  	113.469911 
3766.692687  	113.505159 
3768.124345  	113.413671 
3769.556003  	113.529890 
3770.987662  	113.793460 
3772.419320  	113.809261 
3773.850978  	113.697620 
3775.282636  	113.600191 
3776.714294  	113.567373 
3778.145953  	113.487399 
3779.577611  	113.409821 
3781.009269  	113.468758 
3782.440927  	113.421853 
3783.872585  	113.334161 
3785.304243  	113.413089 
3786.735902  	113.529260 
3788.167560  	113.536331 
3789.599218  	113.407905 
3791.030876  	113.328153 
3792.462534  	113.483840 
3793.894193  	113.563820 
3795.325851  	113.438026 
3796.757509  	113.404396 
3798.189167  	113.387703 
3799.620825  	113.160564 
3801.052484  	113.009691 
3802.484142  	113.410044 
3803.915800  	113.524208 
3805.347458  	113.190943 
3806.779116  	113.217176 
3808.210774  	113.714569 
3809.642433  	113.571059 
3811.074091  	113.330382 
3812.505749  	113.411385 
3813.937407  	113.386667 
3815.369065  	113.290163 
3816.800724  	113.523957 
3818.232382  	113.430756 
3819.664040  	113.047819 
3821.095698  	113.163614 
3822.527356  	113.806210 
3823.959014  	113.590559 
3825.390673  	113.307543 
3826.822331  	113.459477 
3828.253989  	113.540534 
3829.685647  	113.355549 
3831.117305  	113.309435 
3832.548964  	113.346255 
3833.980622  	113.335373 
3835.412280  	113.331917 
3836.843938  	113.252948 
3838.275596  	113.175296 
3839.707255  	113.196263 
3841.138913  	113.224254 
3842.570571  	113.292519 
3844.002229  	113.420973 
3845.433887  	113.540787 
3846.865545  	113.511880 
3848.297204  	113.392108 
3849.728862  	113.333857 
3851.160520  	113.158690 
3852.592178  	112.785846 
3854.023836  	112.928512 
3855.455495  	113.444415 
3856.887153  	113.529281 
3858.318811  	113.564732 
3859.750469  	113.423027 
3861.182127  	113.279969 
3862.613786  	113.251085 
3864.045444  	113.062829 
3865.477102  	113.135575 
3866.908760  	113.393169 
3868.340418  	113.086397 
3869.772076  	112.830785 
3871.203735  	113.318954 
3872.635393  	113.328792 
3874.067051  	113.175010 
3875.498709  	113.378459 
3876.930367  	113.341916 
3878.362026  	113.099678 
3879.793684  	113.006868 
3881.225342  	113.132750 
3882.657000  	113.214815 
3884.088658  	113.058957 
3885.520316  	112.956618 
3886.951975  	113.277741 
3888.383633  	113.307417 
3889.815291  	113.074493 
3891.246949  	113.146426 
3892.678607  	113.426966 
3894.110266  	113.401239 
3895.541924  	113.295355 
3896.973582  	113.167165 
3898.405240  	113.013285 
3899.836898  	113.009987 
3901.268557  	113.051724 
3902.700215  	112.990832 
3904.131873  	113.029835 
3905.563531  	113.190040 
3906.995189  	113.341944 
3908.426847  	113.462818 
3909.858506  	113.434256 
3911.290164  	113.340241 
3912.721822  	113.400291 
3914.153480  	113.430433 
3915.585138  	113.283617 
3917.016797  	113.144920 
3918.448455  	113.081082 
3919.880113  	113.083741 
3921.311771  	113.172947 
3922.743429  	113.132352 
3924.175088  	113.030577 
3925.606746  	113.150551 
3927.038404  	113.267213 
3928.470062  	113.233218 
3929.901720  	113.202462 
3931.333378  	113.153139 
3932.765037  	113.182140 
3934.196695  	113.300079 
3935.628353  	113.272340 
3937.060011  	113.242923 
3938.491669  	113.295326 
3939.923328  	113.225155 
3941.354986  	113.093391 
3942.786644  	113.055511 
3944.218302  	113.114196 
3945.649960  	113.205779 
3947.081618  	113.268935 
3948.513277  	113.332970 
3949.944935  	113.375021 
3951.376593  	113.317963 
3952.808251  	113.268188 
3954.239909  	113.271984 
3955.671568  	113.280828 
3957.103226  	113.339159 
3958.534884  	113.369310 
3959.966542  	113.264829 
3961.398200  	113.162608 
3962.829859  	113.236040 
3964.261517  	113.385670 
3965.693175  	113.363037 
3967.124833  	113.233002 
3968.556491  	113.200691 
3969.988149  	113.205110 
3971.419808  	113.230955 
3972.851466  	113.285252 
3974.283124  	113.212261 
3975.714782  	113.144298 
3977.146440  	113.189898 
3978.578099  	113.169939 
3980.009757  	113.175798 
3981.441415  	113.249578 
3982.873073  	113.210872 
3984.304731  	113.177291 
3985.736389  	113.232879 
3987.168048  	113.220206 
3988.599706  	113.143918 
3990.031364  	113.121872 
3991.463022  	113.162494 
3992.894680  	113.168887 
3994.326339  	113.184968 
3995.757997  	113.301813 
3997.189655  	113.312454 
3998.621313  	113.176793 
4000.052971  	113.139463 