##TITLE=No Description
##DATA TYPE=INFRARED SPECTRUM
##XUNITS=1/CM
##YUNITS=Abs
399.432634  	0.021540 
400.864292  	0.049397 
402.295950  	0.063712 
403.727608  	0.066880 
405.159267  	0.078682 
406.590925  	0.068948 
408.022583  	0.045631 
409.454241  	0.053628 
410.885899  	0.067499 
412.317558  	0.049664 
413.749216  	0.032854 
415.180874  	0.042044 
416.612532  	0.046319 
418.044190  	0.040261 
419.475848  	0.045996 
420.907507  	0.046783 
422.339165  	0.050424 
423.770823  	0.065666 
425.202481  	0.056413 
426.634139  	0.027587 
428.065798  	0.023664 
429.497456  	0.034359 
430.929114  	0.032101 
432.360772  	0.035325 
433.792430  	0.042840 
435.224089  	0.038992 
436.655747  	0.041357 
438.087405  	0.052627 
439.519063  	0.051360 
440.950721  	0.041635 
442.382379  	0.044954 
443.814038  	0.060252 
445.245696  	0.056121 
446.677354  	0.040914 
448.109012  	0.047192 
449.540670  	0.055657 
450.972329  	0.052306 
452.403987  	0.057747 
453.835645  	0.060311 
455.267303  	0.052340 
456.698961  	0.050610 
458.130619  	0.049570 
459.562278  	0.049936 
460.993936  	0.055862 
462.425594  	0.054686 
463.857252  	0.052359 
465.288910  	0.057540 
466.720569  	0.062829 
468.152227  	0.065961 
469.583885  	0.064307 
471.015543  	0.060981 
472.447201  	0.062292 
473.878860  	0.062434 
475.310518  	0.062443 
476.742176  	0.065616 
478.173834  	0.068976 
479.605492  	0.075250 
481.037150  	0.081571 
482.468809  	0.083132 
483.900467  	0.085224 
485.332125  	0.088316 
486.763783  	0.091723 
488.195441  	0.094019 
489.627100  	0.091411 
491.058758  	0.093125 
492.490416  	0.102417 
493.922074  	0.108797 
495.353732  	0.113688 
496.785391  	0.119481 
498.217049  	0.125586 
499.648707  	0.136913 
501.080365  	0.151670 
502.512023  	0.168687 
503.943681  	0.191455 
505.375340  	0.217767 
506.806998  	0.246359 
508.238656  	0.264688 
509.670314  	0.259474 
511.101972  	0.244695 
512.533631  	0.231435 
513.965289  	0.215089 
515.396947  	0.197807 
516.828605  	0.181368 
518.260263  	0.161691 
519.691921  	0.142857 
521.123580  	0.128499 
522.555238  	0.116417 
523.986896  	0.105828 
525.418554  	0.096544 
526.850212  	0.088309 
528.281871  	0.083168 
529.713529  	0.081449 
531.145187  	0.081274 
532.576845  	0.081682 
534.008503  	0.081125 
535.440162  	0.079025 
536.871820  	0.078221 
538.303478  	0.078749 
539.735136  	0.079116 
541.166794  	0.080452 
542.598452  	0.080855 
544.030111  	0.078841 
545.461769  	0.077075 
546.893427  	0.076282 
548.325085  	0.076765 
549.756743  	0.078136 
551.188402  	0.077902 
552.620060  	0.077876 
554.051718  	0.079330 
555.483376  	0.079216 
556.915034  	0.078269 
558.346692  	0.078407 
559.778351  	0.079027 
561.210009  	0.080113 
562.641667  	0.080695 
564.073325  	0.080472 
565.504983  	0.081155 
566.936642  	0.082806 
568.368300  	0.084378 
569.799958  	0.085111 
571.231616  	0.085732 
572.663274  	0.087335 
574.094933  	0.088363 
575.526591  	0.089108 
576.958249  	0.091217 
578.389907  	0.091792 
579.821565  	0.090540 
581.253223  	0.090691 
582.684882  	0.091242 
584.116540  	0.091365 
585.548198  	0.092496 
586.979856  	0.092777 
588.411514  	0.091721 
589.843173  	0.091460 
591.274831  	0.091356 
592.706489  	0.091535 
594.138147  	0.093143 
595.569805  	0.093911 
597.001464  	0.094026 
598.433122  	0.096578 
599.864780  	0.100854 
601.296438  	0.105861 
602.728096  	0.112036 
604.159754  	0.118326 
605.591413  	0.125240 
607.023071  	0.133626 
608.454729  	0.140235 
609.886387  	0.142252 
611.318045  	0.140520 
612.749704  	0.135585 
614.181362  	0.129276 
615.613020  	0.123143 
617.044678  	0.116773 
618.476336  	0.112221 
619.907994  	0.109778 
621.339653  	0.108073 
622.771311  	0.107446 
624.202969  	0.106862 
625.634627  	0.106367 
627.066285  	0.107761 
628.497944  	0.109834 
629.929602  	0.111900 
631.361260  	0.115592 
632.792918  	0.120262 
634.224576  	0.124122 
635.656235  	0.126381 
637.087893  	0.126287 
638.519551  	0.125721 
639.951209  	0.126377 
641.382867  	0.125904 
642.814525  	0.124037 
644.246184  	0.123941 
645.677842  	0.125369 
647.109500  	0.126316 
648.541158  	0.127373 
649.972816  	0.128384 
651.404475  	0.128724 
652.836133  	0.129507 
654.267791  	0.130484 
655.699449  	0.130536 
657.131107  	0.130726 
658.562766  	0.131669 
659.994424  	0.131517 
661.426082  	0.130398 
662.857740  	0.130340 
664.289398  	0.130829 
665.721056  	0.131876 
667.152715  	0.137254 
668.584373  	0.142090 
670.016031  	0.135004 
671.447689  	0.131040 
672.879347  	0.131313 
674.311006  	0.131422 
675.742664  	0.130150 
677.174322  	0.128857 
678.605980  	0.127440 
680.037638  	0.126471 
681.469296  	0.126014 
682.900955  	0.124981 
684.332613  	0.123660 
685.764271  	0.122566 
687.195929  	0.121193 
688.627587  	0.119242 
690.059246  	0.117081 
691.490904  	0.115138 
692.922562  	0.113450 
694.354220  	0.112329 
695.785878  	0.112111 
697.217537  	0.111673 
698.649195  	0.110496 
700.080853  	0.110451 
701.512511  	0.111783 
702.944169  	0.112737 
704.375827  	0.113433 
705.807486  	0.114665 
707.239144  	0.115498 
708.670802  	0.114887 
710.102460  	0.113319 
711.534118  	0.111471 
712.965777  	0.109657 
714.397435  	0.108582 
715.829093  	0.108341 
717.260751  	0.108269 
718.692409  	0.108256 
720.124067  	0.108310 
721.555726  	0.108392 
722.987384  	0.108598 
724.419042  	0.108358 
725.850700  	0.107629 
727.282358  	0.107275 
728.714017  	0.107079 
730.145675  	0.106374 
731.577333  	0.105725 
733.008991  	0.105783 
734.440649  	0.106203 
735.872308  	0.107097 
737.303966  	0.109222 
738.735624  	0.111930 
740.167282  	0.114644 
741.598940  	0.118308 
743.030598  	0.122494 
744.462257  	0.126486 
745.893915  	0.130822 
747.325573  	0.134445 
748.757231  	0.136619 
750.188889  	0.138295 
751.620548  	0.139574 
753.052206  	0.140626 
754.483864  	0.141660 
755.915522  	0.143025 
757.347180  	0.146472 
758.778839  	0.152199 
760.210497  	0.159678 
761.642155  	0.170516 
763.073813  	0.184652 
764.505471  	0.200013 
765.937129  	0.215111 
767.368788  	0.227393 
768.800446  	0.233316 
770.232104  	0.230874 
771.663762  	0.220849 
773.095420  	0.204988 
774.527079  	0.186469 
775.958737  	0.168884 
777.390395  	0.153121 
778.822053  	0.139214 
780.253711  	0.127533 
781.685369  	0.116999 
783.117028  	0.105728 
784.548686  	0.093923 
785.980344  	0.083235 
787.412002  	0.074084 
788.843660  	0.066896 
790.275319  	0.062286 
791.706977  	0.059453 
793.138635  	0.058290 
794.570293  	0.059540 
796.001951  	0.062550 
797.433610  	0.066716 
798.865268  	0.072589 
800.296926  	0.079886 
801.728584  	0.088093 
803.160242  	0.098014 
804.591900  	0.108983 
806.023559  	0.119732 
807.455217  	0.131263 
808.886875  	0.143346 
810.318533  	0.154460 
811.750191  	0.164217 
813.181850  	0.172026 
814.613508  	0.177111 
816.045166  	0.177593 
817.476824  	0.171643 
818.908482  	0.160243 
820.340141  	0.145916 
821.771799  	0.131560 
823.203457  	0.119095 
824.635115  	0.108799 
826.066773  	0.100707 
827.498431  	0.094805 
828.930090  	0.090172 
830.361748  	0.086262 
831.793406  	0.083140 
833.225064  	0.080416 
834.656722  	0.078096 
836.088381  	0.076551 
837.520039  	0.075964 
838.951697  	0.076549 
840.383355  	0.078265 
841.815013  	0.081329 
843.246671  	0.085255 
844.678330  	0.088452 
846.109988  	0.090981 
847.541646  	0.093090 
848.973304  	0.093432 
850.404962  	0.091826 
851.836621  	0.088992 
853.268279  	0.085186 
854.699937  	0.081214 
856.131595  	0.077555 
857.563253  	0.074296 
858.994912  	0.072023 
860.426570  	0.070216 
861.858228  	0.067616 
863.289886  	0.063726 
864.721544  	0.058401 
866.153202  	0.052002 
867.584861  	0.044843 
869.016519  	0.036839 
870.448177  	0.028928 
871.879835  	0.022249 
873.311493  	0.017101 
874.743152  	0.013413 
876.174810  	0.010809 
877.606468  	0.009275 
879.038126  	0.008583 
880.469784  	0.008109 
881.901443  	0.007904 
883.333101  	0.007986 
884.764759  	0.008262 
886.196417  	0.008728 
887.628075  	0.009070 
889.059733  	0.009612 
890.491392  	0.010606 
891.923050  	0.011541 
893.354708  	0.012456 
894.786366  	0.013471 
896.218024  	0.014522 
897.649683  	0.015791 
899.081341  	0.017029 
900.512999  	0.018350 
901.944657  	0.020217 
903.376315  	0.022173 
904.807973  	0.024330 
906.239632  	0.027613 
907.671290  	0.031733 
909.102948  	0.036288 
910.534606  	0.041780 
911.966264  	0.047679 
913.397923  	0.052652 
914.829581  	0.055554 
916.261239  	0.055026 
917.692897  	0.051748 
919.124555  	0.047841 
920.556214  	0.043892 
921.987872  	0.040734 
923.419530  	0.039083 
924.851188  	0.037845 
926.282846  	0.037292 
927.714504  	0.038665 
929.146163  	0.040878 
930.577821  	0.042872 
932.009479  	0.045090 
933.441137  	0.047674 
934.872795  	0.050333 
936.304454  	0.052992 
937.736112  	0.056237 
939.167770  	0.059929 
940.599428  	0.062848 
942.031086  	0.065401 
943.462744  	0.068539 
944.894403  	0.071684 
946.326061  	0.074447 
947.757719  	0.077047 
949.189377  	0.079793 
950.621035  	0.082888 
952.052694  	0.086008 
953.484352  	0.089113 
954.916010  	0.092284 
956.347668  	0.095298 
957.779326  	0.097838 
959.210985  	0.099302 
960.642643  	0.099724 
962.074301  	0.099382 
963.505959  	0.098151 
964.937617  	0.096545 
966.369275  	0.094835 
967.800934  	0.093077 
969.232592  	0.092111 
970.664250  	0.092133 
972.095908  	0.092835 
973.527566  	0.094242 
974.959225  	0.096108 
976.390883  	0.098411 
977.822541  	0.100794 
979.254199  	0.102480 
980.685857  	0.103705 
982.117516  	0.104448 
983.549174  	0.104010 
984.980832  	0.102253 
986.412490  	0.099825 
987.844148  	0.097968 
989.275806  	0.096875 
990.707465  	0.096136 
992.139123  	0.096198 
993.570781  	0.096748 
995.002439  	0.097658 
996.434097  	0.099818 
997.865756  	0.102464 
999.297414  	0.104964 
1000.729072  	0.108254 
1002.160730  	0.112291 
1003.592388  	0.116693 
1005.024046  	0.121335 
1006.455705  	0.126357 
1007.887363  	0.132607 
1009.319021  	0.139940 
1010.750679  	0.148173 
1012.182337  	0.158242 
1013.613996  	0.172107 
1015.045654  	0.191598 
1016.477312  	0.210350 
1017.908970  	0.215477 
1019.340628  	0.203291 
1020.772287  	0.181340 
1022.203945  	0.160379 
1023.635603  	0.146950 
1025.067261  	0.142159 
1026.498919  	0.144793 
1027.930577  	0.151819 
1029.362236  	0.159995 
1030.793894  	0.168981 
1032.225552  	0.178342 
1033.657210  	0.187436 
1035.088868  	0.196831 
1036.520527  	0.205598 
1037.952185  	0.213841 
1039.383843  	0.222577 
1040.815501  	0.231754 
1042.247159  	0.242366 
1043.678818  	0.254253 
1045.110476  	0.267212 
1046.542134  	0.281845 
1047.973792  	0.296881 
1049.405450  	0.313439 
1050.837108  	0.331888 
1052.268767  	0.350275 
1053.700425  	0.369937 
1055.132083  	0.388591 
1056.563741  	0.404663 
1057.995399  	0.420320 
1059.427058  	0.431773 
1060.858716  	0.439499 
1062.290374  	0.444510 
1063.722032  	0.444055 
1065.153690  	0.442526 
1066.585348  	0.439043 
1068.017007  	0.432742 
1069.448665  	0.428419 
1070.880323  	0.422736 
1072.311981  	0.416221 
1073.743639  	0.411071 
1075.175298  	0.403260 
1076.606956  	0.395166 
1078.038614  	0.385471 
1079.470272  	0.370314 
1080.901930  	0.353411 
1082.333589  	0.333744 
1083.765247  	0.311313 
1085.196905  	0.290679 
1086.628563  	0.273576 
1088.060221  	0.262633 
1089.491879  	0.258243 
1090.923538  	0.257580 
1092.355196  	0.260191 
1093.786854  	0.264188 
1095.218512  	0.267891 
1096.650170  	0.272178 
1098.081829  	0.275556 
1099.513487  	0.278604 
1100.945145  	0.282015 
1102.376803  	0.283842 
1103.808461  	0.285009 
1105.240120  	0.284304 
1106.671778  	0.280660 
1108.103436  	0.276335 
1109.535094  	0.270062 
1110.966752  	0.261757 
1112.398410  	0.251848 
1113.830069  	0.238435 
1115.261727  	0.223674 
1116.693385  	0.209411 
1118.125043  	0.195107 
1119.556701  	0.181965 
1120.988360  	0.170120 
1122.420018  	0.158025 
1123.851676  	0.145247 
1125.283334  	0.132256 
1126.714992  	0.119271 
1128.146650  	0.106420 
1129.578309  	0.094538 
1131.009967  	0.084182 
1132.441625  	0.075140 
1133.873283  	0.067210 
1135.304941  	0.060405 
1136.736600  	0.054517 
1138.168258  	0.049339 
1139.599916  	0.045224 
1141.031574  	0.041961 
1142.463232  	0.039079 
1143.894891  	0.036696 
1145.326549  	0.034453 
1146.758207  	0.032469 
1148.189865  	0.031087 
1149.621523  	0.029640 
1151.053181  	0.028340 
1152.484840  	0.027581 
1153.916498  	0.027075 
1155.348156  	0.027187 
1156.779814  	0.027694 
1158.211472  	0.028380 
1159.643131  	0.029667 
1161.074789  	0.031105 
1162.506447  	0.032900 
1163.938105  	0.035567 
1165.369763  	0.038609 
1166.801421  	0.042081 
1168.233080  	0.046197 
1169.664738  	0.051187 
1171.096396  	0.057379 
1172.528054  	0.064525 
1173.959712  	0.072969 
1175.391371  	0.083015 
1176.823029  	0.094730 
1178.254687  	0.108269 
1179.686345  	0.122162 
1181.118003  	0.134329 
1182.549662  	0.143374 
1183.981320  	0.150681 
1185.412978  	0.159426 
1186.844636  	0.170331 
1188.276294  	0.183934 
1189.707952  	0.200119 
1191.139611  	0.217240 
1192.571269  	0.236733 
1194.002927  	0.258616 
1195.434585  	0.281729 
1196.866243  	0.308181 
1198.297902  	0.336887 
1199.729560  	0.366828 
1201.161218  	0.395620 
1202.592876  	0.416186 
1204.024534  	0.429016 
1205.456193  	0.433817 
1206.887851  	0.431766 
1208.319509  	0.431666 
1209.751167  	0.435141 
1211.182825  	0.444922 
1212.614483  	0.463566 
1214.046142  	0.484057 
1215.477800  	0.504114 
1216.909458  	0.519001 
1218.341116  	0.523167 
1219.772774  	0.522167 
1221.204433  	0.513651 
1222.636091  	0.499000 
1224.067749  	0.483805 
1225.499407  	0.465054 
1226.931065  	0.446212 
1228.362723  	0.427991 
1229.794382  	0.407699 
1231.226040  	0.388931 
1232.657698  	0.369645 
1234.089356  	0.348876 
1235.521014  	0.328875 
1236.952673  	0.307304 
1238.384331  	0.285421 
1239.815989  	0.264521 
1241.247647  	0.243758 
1242.679305  	0.224981 
1244.110964  	0.208259 
1245.542622  	0.194039 
1246.974280  	0.184226 
1248.405938  	0.178280 
1249.837596  	0.175315 
1251.269254  	0.172893 
1252.700913  	0.166879 
1254.132571  	0.156921 
1255.564229  	0.143688 
1256.995887  	0.127869 
1258.427545  	0.111923 
1259.859204  	0.096787 
1261.290862  	0.082816 
1262.722520  	0.071086 
1264.154178  	0.061843 
1265.585836  	0.054950 
1267.017495  	0.050461 
1268.449153  	0.047871 
1269.880811  	0.046787 
1271.312469  	0.046899 
1272.744127  	0.047379 
1274.175785  	0.047933 
1275.607444  	0.047975 
1277.039102  	0.046964 
1278.470760  	0.045596 
1279.902418  	0.043948 
1281.334076  	0.041952 
1282.765735  	0.040449 
1284.197393  	0.039658 
1285.629051  	0.039637 
1287.060709  	0.040619 
1288.492367  	0.042841 
1289.924025  	0.046854 
1291.355684  	0.052341 
1292.787342  	0.059372 
1294.219000  	0.068567 
1295.650658  	0.079847 
1297.082316  	0.093714 
1298.513975  	0.109907 
1299.945633  	0.128507 
1301.377291  	0.149830 
1302.808949  	0.171666 
1304.240607  	0.193149 
1305.672266  	0.211767 
1307.103924  	0.224588 
1308.535582  	0.231528 
1309.967240  	0.230139 
1311.398898  	0.222640 
1312.830556  	0.211976 
1314.262215  	0.199750 
1315.693873  	0.190289 
1317.125531  	0.181486 
1318.557189  	0.168384 
1319.988847  	0.149699 
1321.420506  	0.127141 
1322.852164  	0.105342 
1324.283822  	0.086298 
1325.715480  	0.070382 
1327.147138  	0.057679 
1328.578796  	0.047641 
1330.010455  	0.040293 
1331.442113  	0.035022 
1332.873771  	0.031488 
1334.305429  	0.029326 
1335.737087  	0.028219 
1337.168746  	0.028297 
1338.600404  	0.028564 
1340.032062  	0.028616 
1341.463720  	0.028534 
1342.895378  	0.028087 
1344.327037  	0.027757 
1345.758695  	0.027459 
1347.190353  	0.027574 
1348.622011  	0.028949 
1350.053669  	0.030627 
1351.485327  	0.032500 
1352.916986  	0.035127 
1354.348644  	0.037800 
1355.780302  	0.040381 
1357.211960  	0.042538 
1358.643618  	0.044270 
1360.075277  	0.046168 
1361.506935  	0.047892 
1362.938593  	0.049368 
1364.370251  	0.050513 
1365.801909  	0.051399 
1367.233568  	0.052274 
1368.665226  	0.052301 
1370.096884  	0.051522 
1371.528542  	0.050714 
1372.960200  	0.049501 
1374.391858  	0.047244 
1375.823517  	0.044368 
1377.255175  	0.041905 
1378.686833  	0.039261 
1380.118491  	0.036162 
1381.550149  	0.033431 
1382.981808  	0.031328 
1384.413466  	0.030201 
1385.845124  	0.030029 
1387.276782  	0.030272 
1388.708440  	0.030290 
1390.140098  	0.030564 
1391.571757  	0.031140 
1393.003415  	0.031787 
1394.435073  	0.033038 
1395.866731  	0.034915 
1397.298389  	0.037670 
1398.730048  	0.041974 
1400.161706  	0.047324 
1401.593364  	0.054397 
1403.025022  	0.064519 
1404.456680  	0.079068 
1405.888339  	0.101071 
1407.319997  	0.129772 
1408.751655  	0.164122 
1410.183313  	0.204186 
1411.614971  	0.235787 
1413.046629  	0.245444 
1414.478288  	0.233806 
1415.909946  	0.199113 
1417.341604  	0.159064 
1418.773262  	0.117788 
1420.204920  	0.071725 
1421.636579  	0.050001 
1423.068237  	0.038813 
1424.499895  	0.028713 
1425.931553  	0.026989 
1427.363211  	0.028722 
1428.794870  	0.032911 
1430.226528  	0.040582 
1431.658186  	0.046209 
1433.089844  	0.050595 
1434.521502  	0.053427 
1435.953160  	0.052982 
1437.384819  	0.048764 
1438.816477  	0.044928 
1440.248135  	0.042760 
1441.679793  	0.042313 
1443.111451  	0.043840 
1444.543110  	0.047531 
1445.974768  	0.051182 
1447.406426  	0.052302 
1448.838084  	0.051781 
1450.269742  	0.050797 
1451.701400  	0.050277 
1453.133059  	0.050901 
1454.564717  	0.051769 
1455.996375  	0.052922 
1457.428033  	0.051885 
1458.859691  	0.048772 
1460.291350  	0.048560 
1461.723008  	0.049799 
1463.154666  	0.052233 
1464.586324  	0.056369 
1466.017982  	0.059669 
1467.449641  	0.062678 
1468.881299  	0.066206 
1470.312957  	0.069147 
1471.744615  	0.073276 
1473.176273  	0.077039 
1474.607931  	0.079751 
1476.039590  	0.084418 
1477.471248  	0.086254 
1478.902906  	0.085236 
1480.334564  	0.082200 
1481.766222  	0.075383 
1483.197881  	0.070416 
1484.629539  	0.066605 
1486.061197  	0.063238 
1487.492855  	0.062380 
1488.924513  	0.060152 
1490.356172  	0.059874 
1491.787830  	0.062503 
1493.219488  	0.065063 
1494.651146  	0.071917 
1496.082804  	0.080424 
1497.514462  	0.088946 
1498.946121  	0.102509 
1500.377779  	0.114132 
1501.809437  	0.128067 
1503.241095  	0.146384 
1504.672753  	0.161426 
1506.104412  	0.183669 
1507.536070  	0.221578 
1508.967728  	0.245442 
1510.399386  	0.276618 
1511.831044  	0.305329 
1513.262702  	0.327904 
1514.694361  	0.350106 
1516.126019  	0.358331 
1517.557677  	0.367896 
1518.989335  	0.382983 
1520.420993  	0.386815 
1521.852652  	0.405932 
1523.284310  	0.416117 
1524.715968  	0.416754 
1526.147626  	0.424344 
1527.579284  	0.415347 
1529.010943  	0.409587 
1530.442601  	0.404183 
1531.874259  	0.388728 
1533.305917  	0.377412 
1534.737575  	0.351468 
1536.169233  	0.330976 
1537.600892  	0.320550 
1539.032550  	0.292891 
1540.464208  	0.259559 
1541.895866  	0.235004 
1543.327524  	0.206595 
1544.759183  	0.185096 
1546.190841  	0.156754 
1547.622499  	0.134667 
1549.054157  	0.118381 
1550.485815  	0.093439 
1551.917473  	0.075901 
1553.349132  	0.064039 
1554.780790  	0.047162 
1556.212448  	0.037193 
1557.644106  	0.032206 
1559.075764  	0.021542 
1560.507423  	0.010789 
1561.939081  	0.007111 
1563.370739  	0.004752 
1564.802397  	0.002254 
1566.234055  	-0.000584 
1567.665714  	-0.001649 
1569.097372  	-0.002287 
1570.529030  	-0.003836 
1571.960688  	-0.004388 
1573.392346  	-0.003847 
1574.824004  	-0.002827 
1576.255663  	-0.001376 
1577.687321  	0.000391 
1579.118979  	0.002441 
1580.550637  	0.006051 
1581.982295  	0.011328 
1583.413954  	0.017994 
1584.845612  	0.028081 
1586.277270  	0.040827 
1587.708928  	0.056731 
1589.140586  	0.077723 
1590.572245  	0.099447 
1592.003903  	0.122488 
1593.435561  	0.143036 
1594.867219  	0.155126 
1596.298877  	0.163627 
1597.730535  	0.162390 
1599.162194  	0.154374 
1600.593852  	0.144974 
1602.025510  	0.130331 
1603.457168  	0.116784 
1604.888826  	0.105014 
1606.320485  	0.094292 
1607.752143  	0.088279 
1609.183801  	0.083613 
1610.615459  	0.080706 
1612.047117  	0.079214 
1613.478775  	0.074843 
1614.910434  	0.071117 
1616.342092  	0.062872 
1617.773750  	0.045825 
1619.205408  	0.035653 
1620.637066  	0.026338 
1622.068725  	0.017836 
1623.500383  	0.012232 
1624.932041  	0.005662 
1626.363699  	0.003122 
1627.795357  	0.002374 
1629.227016  	-0.000658 
1630.658674  	-0.000856 
1632.090332  	-0.000678 
1633.521990  	-0.001188 
1634.953648  	0.001098 
1636.385306  	0.000522 
1637.816965  	-0.000620 
1639.248623  	0.000272 
1640.680281  	-0.001428 
1642.111939  	-0.001595 
1643.543597  	-0.000767 
1644.975256  	-0.001358 
1646.406914  	0.000525 
1647.838572  	-0.000219 
1649.270230  	-0.000992 
1650.701888  	0.001711 
1652.133547  	0.002409 
1653.565205  	0.003669 
1654.996863  	0.004699 
1656.428521  	0.003825 
1657.860179  	0.006512 
1659.291837  	0.008205 
1660.723496  	0.009172 
1662.155154  	0.013312 
1663.586812  	0.014301 
1665.018470  	0.016714 
1666.450128  	0.021314 
1667.881787  	0.023369 
1669.313445  	0.029400 
1670.745103  	0.034530 
1672.176761  	0.037398 
1673.608419  	0.046139 
1675.040077  	0.052645 
1676.471736  	0.061264 
1677.903394  	0.073256 
1679.335052  	0.081317 
1680.766710  	0.096065 
1682.198368  	0.110985 
1683.630027  	0.119695 
1685.061685  	0.147288 
1686.493343  	0.163437 
1687.925001  	0.178369 
1689.356659  	0.204883 
1690.788318  	0.225773 
1692.219976  	0.251071 
1693.651634  	0.279706 
1695.083292  	0.297124 
1696.514950  	0.327108 
1697.946608  	0.347925 
1699.378267  	0.349200 
1700.809925  	0.348001 
1702.241583  	0.336947 
1703.673241  	0.324837 
1705.104899  	0.308107 
1706.536558  	0.281939 
1707.968216  	0.261980 
1709.399874  	0.245630 
1710.831532  	0.227367 
1712.263190  	0.212057 
1713.694849  	0.200156 
1715.126507  	0.186390 
1716.558165  	0.175054 
1717.989823  	0.165461 
1719.421481  	0.154473 
1720.853139  	0.150990 
1722.284798  	0.150306 
1723.716456  	0.149826 
1725.148114  	0.152055 
1726.579772  	0.154059 
1728.011430  	0.154175 
1729.443089  	0.151992 
1730.874747  	0.144265 
1732.306405  	0.135915 
1733.738063  	0.124172 
1735.169721  	0.097718 
1736.601379  	0.083842 
1738.033038  	0.071843 
1739.464696  	0.052979 
1740.896354  	0.037305 
1742.328012  	0.024220 
1743.759670  	0.011734 
1745.191329  	0.003109 
1746.622987  	-0.005745 
1748.054645  	-0.011232 
1749.486303  	-0.015327 
1750.917961  	-0.021417 
1752.349620  	-0.023460 
1753.781278  	-0.026259 
1755.212936  	-0.028289 
1756.644594  	-0.028050 
1758.076252  	-0.030882 
1759.507910  	-0.031480 
1760.939569  	-0.030973 
1762.371227  	-0.033229 
1763.802885  	-0.032861 
1765.234543  	-0.033268 
1766.666201  	-0.034032 
1768.097860  	-0.032677 
1769.529518  	-0.034071 
1770.961176  	-0.033974 
1772.392834  	-0.032542 
1773.824492  	-0.035135 
1775.256150  	-0.034539 
1776.687809  	-0.034492 
1778.119467  	-0.035597 
1779.551125  	-0.034058 
1780.982783  	-0.034773 
1782.414441  	-0.035678 
1783.846100  	-0.034690 
1785.277758  	-0.035877 
1786.709416  	-0.035679 
1788.141074  	-0.035227 
1789.572732  	-0.035939 
1791.004391  	-0.034488 
1792.436049  	-0.034944 
1793.867707  	-0.036070 
1795.299365  	-0.035047 
1796.731023  	-0.036189 
1798.162681  	-0.036298 
1799.594340  	-0.035637 
1801.025998  	-0.036865 
1802.457656  	-0.036349 
1803.889314  	-0.036777 
1805.320972  	-0.037646 
1806.752631  	-0.036729 
1808.184289  	-0.037599 
1809.615947  	-0.037831 
1811.047605  	-0.036929 
1812.479263  	-0.037988 
1813.910922  	-0.037629 
1815.342580  	-0.037657 
1816.774238  	-0.038719 
1818.205896  	-0.038086 
1819.637554  	-0.038859 
1821.069212  	-0.039313 
1822.500871  	-0.038523 
1823.932529  	-0.039262 
1825.364187  	-0.038754 
1826.795845  	-0.039086 
1828.227503  	-0.040425 
1829.659162  	-0.039238 
1831.090820  	-0.039968 
1832.522478  	-0.040775 
1833.954136  	-0.039931 
1835.385794  	-0.040968 
1836.817452  	-0.040783 
1838.249111  	-0.040426 
1839.680769  	-0.041745 
1841.112427  	-0.040824 
1842.544085  	-0.040728 
1843.975743  	-0.041920 
1845.407402  	-0.041407 
1846.839060  	-0.042347 
1848.270718  	-0.042070 
1849.702376  	-0.041439 
1851.134034  	-0.042276 
1852.565693  	-0.041406 
1853.997351  	-0.041967 
1855.429009  	-0.043005 
1856.860667  	-0.041573 
1858.292325  	-0.042130 
1859.723983  	-0.042341 
1861.155642  	-0.041572 
1862.587300  	-0.042896 
1864.018958  	-0.042362 
1865.450616  	-0.041730 
1866.882274  	-0.042003 
1868.313933  	-0.040573 
1869.745591  	-0.042027 
1871.177249  	-0.042551 
1872.608907  	-0.041174 
1874.040565  	-0.042530 
1875.472224  	-0.042226 
1876.903882  	-0.041191 
1878.335540  	-0.041994 
1879.767198  	-0.041177 
1881.198856  	-0.041768 
1882.630514  	-0.042418 
1884.062173  	-0.041027 
1885.493831  	-0.041927 
1886.925489  	-0.041625 
1888.357147  	-0.040323 
1889.788805  	-0.041250 
1891.220464  	-0.040344 
1892.652122  	-0.040266 
1894.083780  	-0.040865 
1895.515438  	-0.039375 
1896.947096  	-0.039885 
1898.378754  	-0.039874 
1899.810413  	-0.038973 
1901.242071  	-0.039863 
1902.673729  	-0.038777 
1904.105387  	-0.038434 
1905.537045  	-0.039507 
1906.968704  	-0.038574 
1908.400362  	-0.039212 
1909.832020  	-0.039504 
1911.263678  	-0.039140 
1912.695336  	-0.041068 
1914.126995  	-0.040754 
1915.558653  	-0.040721 
1916.990311  	-0.041785 
1918.421969  	-0.039856 
1919.853627  	-0.040907 
1921.285285  	-0.041807 
1922.716944  	-0.040085 
1924.148602  	-0.041547 
1925.580260  	-0.041338 
1927.011918  	-0.040808 
1928.443576  	-0.043052 
1929.875235  	-0.042400 
1931.306893  	-0.042706 
1932.738551  	-0.043433 
1934.170209  	-0.041828 
1935.601867  	-0.043814 
1937.033525  	-0.044078 
1938.465184  	-0.042306 
1939.896842  	-0.043740 
1941.328500  	-0.042845 
1942.760158  	-0.043158 
1944.191816  	-0.044326 
1945.623475  	-0.041280 
1947.055133  	-0.042143 
1948.486791  	-0.043030 
1949.918449  	-0.041350 
1951.350107  	-0.043462 
1952.781766  	-0.043391 
1954.213424  	-0.042775 
1955.645082  	-0.043718 
1957.076740  	-0.041989 
1958.508398  	-0.043667 
1959.940056  	-0.043706 
1961.371715  	-0.040746 
1962.803373  	-0.043162 
1964.235031  	-0.041798 
1965.666689  	-0.039994 
1967.098347  	-0.042818 
1968.530006  	-0.041348 
1969.961664  	-0.042194 
1971.393322  	-0.042506 
1972.824980  	-0.040749 
1974.256638  	-0.045556 
1975.688297  	-0.044088 
1977.119955  	-0.040683 
1978.551613  	-0.044429 
1979.983271  	-0.042613 
1981.414929  	-0.042788 
1982.846587  	-0.044578 
1984.278246  	-0.042285 
1985.709904  	-0.044220 
1987.141562  	-0.043751 
1988.573220  	-0.041550 
1990.004878  	-0.043433 
1991.436537  	-0.041279 
1992.868195  	-0.041908 
1994.299853  	-0.044177 
1995.731511  	-0.040997 
1997.163169  	-0.042607 
1998.594827  	-0.043425 
2000.026486  	-0.041280 
2001.458144  	-0.043840 
2002.889802  	-0.041400 
2004.321460  	-0.039544 
2005.753118  	-0.043419 
2007.184777  	-0.041363 
2008.616435  	-0.041008 
2010.048093  	-0.041963 
2011.479751  	-0.040491 
2012.911409  	-0.044119 
2014.343068  	-0.043612 
2015.774726  	-0.040854 
2017.206384  	-0.041523 
2018.638042  	-0.038967 
2020.069700  	-0.041250 
2021.501358  	-0.043219 
2022.933017  	-0.039976 
2024.364675  	-0.043318 
2025.796333  	-0.043396 
2027.227991  	-0.040649 
2028.659649  	-0.043818 
2030.091308  	-0.042000 
2031.522966  	-0.040459 
2032.954624  	-0.040569 
2034.386282  	-0.038038 
2035.817940  	-0.041827 
2037.249599  	-0.042722 
2038.681257  	-0.040429 
2040.112915  	-0.043286 
2041.544573  	-0.042019 
2042.976231  	-0.041855 
2044.407889  	-0.044197 
2045.839548  	-0.041327 
2047.271206  	-0.042202 
2048.702864  	-0.044099 
2050.134522  	-0.043201 
2051.566180  	-0.044688 
2052.997839  	-0.043179 
2054.429497  	-0.041966 
2055.861155  	-0.043594 
2057.292813  	-0.042996 
2058.724471  	-0.044671 
2060.156129  	-0.045212 
2061.587788  	-0.042428 
2063.019446  	-0.044256 
2064.451104  	-0.045939 
2065.882762  	-0.045620 
2067.314420  	-0.046505 
2068.746079  	-0.045235 
2070.177737  	-0.045135 
2071.609395  	-0.045302 
2073.041053  	-0.043783 
2074.472711  	-0.045105 
2075.904370  	-0.044933 
2077.336028  	-0.043924 
2078.767686  	-0.046246 
2080.199344  	-0.046493 
2081.631002  	-0.046170 
2083.062660  	-0.046444 
2084.494319  	-0.045076 
2085.925977  	-0.045832 
2087.357635  	-0.046167 
2088.789293  	-0.044972 
2090.220951  	-0.045499 
2091.652610  	-0.044790 
2093.084268  	-0.044572 
2094.515926  	-0.045394 
2095.947584  	-0.044631 
2097.379242  	-0.045972 
2098.810901  	-0.046219 
2100.242559  	-0.044169 
2101.674217  	-0.044846 
2103.105875  	-0.044740 
2104.537533  	-0.045132 
2105.969191  	-0.047371 
2107.400850  	-0.046162 
2108.832508  	-0.045507 
2110.264166  	-0.046147 
2111.695824  	-0.044727 
2113.127482  	-0.044470 
2114.559141  	-0.044389 
2115.990799  	-0.044962 
2117.422457  	-0.046675 
2118.854115  	-0.045651 
2120.285773  	-0.045719 
2121.717431  	-0.046678 
2123.149090  	-0.045004 
2124.580748  	-0.045322 
2126.012406  	-0.045343 
2127.444064  	-0.043694 
2128.875722  	-0.044496 
2130.307381  	-0.044239 
2131.739039  	-0.044303 
2133.170697  	-0.045589 
2134.602355  	-0.043695 
2136.034013  	-0.043926 
2137.465672  	-0.044723 
2138.897330  	-0.042812 
2140.328988  	-0.043862 
2141.760646  	-0.043958 
2143.192304  	-0.042931 
2144.623962  	-0.043515 
2146.055621  	-0.042515 
2147.487279  	-0.044815 
2148.918937  	-0.045557 
2150.350595  	-0.040637 
2151.782253  	-0.040968 
2153.213912  	-0.042087 
2154.645570  	-0.041008 
2156.077228  	-0.042068 
2157.508886  	-0.039681 
2158.940544  	-0.040382 
2160.372202  	-0.042610 
2161.803861  	-0.040319 
2163.235519  	-0.043128 
2164.667177  	-0.043710 
2166.098835  	-0.041441 
2167.530493  	-0.043421 
2168.962152  	-0.042945 
2170.393810  	-0.043711 
2171.825468  	-0.045095 
2173.257126  	-0.042132 
2174.688784  	-0.043058 
2176.120443  	-0.043424 
2177.552101  	-0.041560 
2178.983759  	-0.044080 
2180.415417  	-0.043257 
2181.847075  	-0.042826 
2183.278733  	-0.045704 
2184.710392  	-0.042917 
2186.142050  	-0.042275 
2187.573708  	-0.044108 
2189.005366  	-0.042394 
2190.437024  	-0.043283 
2191.868683  	-0.043987 
2193.300341  	-0.043098 
2194.731999  	-0.043977 
2196.163657  	-0.043335 
2197.595315  	-0.043990 
2199.026974  	-0.045407 
2200.458632  	-0.044537 
2201.890290  	-0.045640 
2203.321948  	-0.046490 
2204.753606  	-0.046079 
2206.185264  	-0.045730 
2207.616923  	-0.043449 
2209.048581  	-0.043989 
2210.480239  	-0.045872 
2211.911897  	-0.045089 
2213.343555  	-0.046296 
2214.775214  	-0.046472 
2216.206872  	-0.044497 
2217.638530  	-0.044872 
2219.070188  	-0.044968 
2220.501846  	-0.045095 
2221.933504  	-0.044973 
2223.365163  	-0.043921 
2224.796821  	-0.045929 
2226.228479  	-0.046285 
2227.660137  	-0.044275 
2229.091795  	-0.045657 
2230.523454  	-0.046214 
2231.955112  	-0.045783 
2233.386770  	-0.046695 
2234.818428  	-0.046203 
2236.250086  	-0.046493 
2237.681745  	-0.046694 
2239.113403  	-0.045683 
2240.545061  	-0.046470 
2241.976719  	-0.046470 
2243.408377  	-0.046029 
2244.840035  	-0.046326 
2246.271694  	-0.045297 
2247.703352  	-0.046151 
2249.135010  	-0.047198 
2250.566668  	-0.045918 
2251.998326  	-0.046472 
2253.429985  	-0.046717 
2254.861643  	-0.045897 
2256.293301  	-0.046463 
2257.724959  	-0.045692 
2259.156617  	-0.045522 
2260.588276  	-0.046665 
2262.019934  	-0.046054 
2263.451592  	-0.046211 
2264.883250  	-0.046696 
2266.314908  	-0.046303 
2267.746566  	-0.047190 
2269.178225  	-0.047380 
2270.609883  	-0.046479 
2272.041541  	-0.045798 
2273.473199  	-0.045448 
2274.904857  	-0.046804 
2276.336516  	-0.047518 
2277.768174  	-0.046781 
2279.199832  	-0.047358 
2280.631490  	-0.047458 
2282.063148  	-0.046808 
2283.494806  	-0.047115 
2284.926465  	-0.047174 
2286.358123  	-0.046853 
2287.789781  	-0.046179 
2289.221439  	-0.045863 
2290.653097  	-0.046444 
2292.084756  	-0.045721 
2293.516414  	-0.044841 
2294.948072  	-0.045133 
2296.379730  	-0.044530 
2297.811388  	-0.044185 
2299.243047  	-0.044539 
2300.674705  	-0.043813 
2302.106363  	-0.043086 
2303.538021  	-0.042762 
2304.969679  	-0.042458 
2306.401337  	-0.041992 
2307.832996  	-0.040741 
2309.264654  	-0.040150 
2310.696312  	-0.039951 
2312.127970  	-0.038835 
2313.559628  	-0.038451 
2314.991287  	-0.038517 
2316.422945  	-0.038003 
2317.854603  	-0.037067 
2319.286261  	-0.035134 
2320.717919  	-0.033833 
2322.149577  	-0.033515 
2323.581236  	-0.032786 
2325.012894  	-0.032641 
2326.444552  	-0.031996 
2327.876210  	-0.030335 
2329.307868  	-0.029570 
2330.739527  	-0.028979 
2332.171185  	-0.028606 
2333.602843  	-0.028977 
2335.034501  	-0.028556 
2336.466159  	-0.028131 
2337.897818  	-0.027841 
2339.329476  	-0.027116 
2340.761134  	-0.026967 
2342.192792  	-0.026526 
2343.624450  	-0.026197 
2345.056108  	-0.027059 
2346.487767  	-0.029407 
2347.919425  	-0.033569 
2349.351083  	-0.035183 
2350.782741  	-0.031894 
2352.214399  	-0.028088 
2353.646058  	-0.026410 
2355.077716  	-0.024149 
2356.509374  	-0.022325 
2357.941032  	-0.021235 
2359.372690  	-0.020368 
2360.804349  	-0.020556 
2362.236007  	-0.020596 
2363.667665  	-0.021456 
2365.099323  	-0.022971 
2366.530981  	-0.023792 
2367.962639  	-0.025423 
2369.394298  	-0.027135 
2370.825956  	-0.028804 
2372.257614  	-0.031207 
2373.689272  	-0.033027 
2375.120930  	-0.034955 
2376.552589  	-0.036936 
2377.984247  	-0.038398 
2379.415905  	-0.040605 
2380.847563  	-0.042583 
2382.279221  	-0.044004 
2383.710879  	-0.045849 
2385.142538  	-0.046904 
2386.574196  	-0.047328 
2388.005854  	-0.047809 
2389.437512  	-0.047664 
2390.869170  	-0.047745 
2392.300829  	-0.048166 
2393.732487  	-0.048141 
2395.164145  	-0.048200 
2396.595803  	-0.048166 
2398.027461  	-0.047953 
2399.459120  	-0.047967 
2400.890778  	-0.048039 
2402.322436  	-0.048120 
2403.754094  	-0.047881 
2405.185752  	-0.047809 
2406.617410  	-0.048271 
2408.049069  	-0.048111 
2409.480727  	-0.047772 
2410.912385  	-0.047767 
2412.344043  	-0.047669 
2413.775701  	-0.048167 
2415.207360  	-0.048417 
2416.639018  	-0.047988 
2418.070676  	-0.048328 
2419.502334  	-0.048692 
2420.933992  	-0.048508 
2422.365651  	-0.048283 
2423.797309  	-0.047917 
2425.228967  	-0.048212 
2426.660625  	-0.048647 
2428.092283  	-0.048427 
2429.523941  	-0.048294 
2430.955600  	-0.047803 
2432.387258  	-0.047733 
2433.818916  	-0.048693 
2435.250574  	-0.048653 
2436.682232  	-0.048140 
2438.113891  	-0.048263 
2439.545549  	-0.048331 
2440.977207  	-0.048631 
2442.408865  	-0.048459 
2443.840523  	-0.047782 
2445.272181  	-0.047898 
2446.703840  	-0.047985 
2448.135498  	-0.047923 
2449.567156  	-0.048251 
2450.998814  	-0.048395 
2452.430472  	-0.048561 
2453.862131  	-0.048505 
2455.293789  	-0.048424 
2456.725447  	-0.048779 
2458.157105  	-0.048473 
2459.588763  	-0.048169 
2461.020422  	-0.048490 
2462.452080  	-0.048332 
2463.883738  	-0.048371 
2465.315396  	-0.048500 
2466.747054  	-0.048029 
2468.178712  	-0.047984 
2469.610371  	-0.048056 
2471.042029  	-0.047985 
2472.473687  	-0.048113 
2473.905345  	-0.047863 
2475.337003  	-0.047676 
2476.768662  	-0.047535 
2478.200320  	-0.047248 
2479.631978  	-0.047580 
2481.063636  	-0.047797 
2482.495294  	-0.047723 
2483.926953  	-0.047759 
2485.358611  	-0.047411 
2486.790269  	-0.047606 
2488.221927  	-0.048104 
2489.653585  	-0.047992 
2491.085243  	-0.048293 
2492.516902  	-0.048352 
2493.948560  	-0.047792 
2495.380218  	-0.047745 
2496.811876  	-0.047751 
2498.243534  	-0.048084 
2499.675193  	-0.048637 
2501.106851  	-0.048407 
2502.538509  	-0.048441 
2503.970167  	-0.048664 
2505.401825  	-0.048436 
2506.833483  	-0.048501 
2508.265142  	-0.048500 
2509.696800  	-0.048481 
2511.128458  	-0.048481 
2512.560116  	-0.048184 
2513.991774  	-0.048650 
2515.423433  	-0.049028 
2516.855091  	-0.048460 
2518.286749  	-0.048380 
2519.718407  	-0.048574 
2521.150065  	-0.048779 
2522.581724  	-0.049050 
2524.013382  	-0.048602 
2525.445040  	-0.048428 
2526.876698  	-0.048856 
2528.308356  	-0.049163 
2529.740014  	-0.049312 
2531.171673  	-0.048696 
2532.603331  	-0.048402 
2534.034989  	-0.049018 
2535.466647  	-0.049061 
2536.898305  	-0.049320 
2538.329964  	-0.049555 
2539.761622  	-0.048743 
2541.193280  	-0.048651 
2542.624938  	-0.048803 
2544.056596  	-0.048274 
2545.488254  	-0.048197 
2546.919913  	-0.048198 
2548.351571  	-0.048382 
2549.783229  	-0.048569 
2551.214887  	-0.048019 
2552.646545  	-0.048128 
2554.078204  	-0.048537 
2555.509862  	-0.048386 
2556.941520  	-0.048455 
2558.373178  	-0.048113 
2559.804836  	-0.047959 
2561.236495  	-0.048429 
2562.668153  	-0.048089 
2564.099811  	-0.047922 
2565.531469  	-0.048185 
2566.963127  	-0.047912 
2568.394785  	-0.047873 
2569.826444  	-0.047766 
2571.258102  	-0.047835 
2572.689760  	-0.048339 
2574.121418  	-0.047902 
2575.553076  	-0.047659 
2576.984735  	-0.048116 
2578.416393  	-0.048093 
2579.848051  	-0.048431 
2581.279709  	-0.048502 
2582.711367  	-0.047863 
2584.143026  	-0.047961 
2585.574684  	-0.048000 
2587.006342  	-0.047668 
2588.438000  	-0.047555 
2589.869658  	-0.047329 
2591.301316  	-0.047712 
2592.732975  	-0.048124 
2594.164633  	-0.047794 
2595.596291  	-0.047855 
2597.027949  	-0.047816 
2598.459607  	-0.047534 
2599.891266  	-0.047966 
2601.322924  	-0.048336 
2602.754582  	-0.048341 
2604.186240  	-0.048138 
2605.617898  	-0.047651 
2607.049556  	-0.047537 
2608.481215  	-0.047597 
2609.912873  	-0.047647 
2611.344531  	-0.047911 
2612.776189  	-0.047938 
2614.207847  	-0.048008 
2615.639506  	-0.048227 
2617.071164  	-0.048142 
2618.502822  	-0.047959 
2619.934480  	-0.047730 
2621.366138  	-0.047720 
2622.797797  	-0.047951 
2624.229455  	-0.047955 
2625.661113  	-0.048105 
2627.092771  	-0.048225 
2628.524429  	-0.048060 
2629.956087  	-0.048064 
2631.387746  	-0.047868 
2632.819404  	-0.047788 
2634.251062  	-0.048037 
2635.682720  	-0.047781 
2637.114378  	-0.047704 
2638.546037  	-0.047922 
2639.977695  	-0.047719 
2641.409353  	-0.047832 
2642.841011  	-0.047864 
2644.272669  	-0.047415 
2645.704328  	-0.047405 
2647.135986  	-0.047466 
2648.567644  	-0.047507 
2649.999302  	-0.047722 
2651.430960  	-0.047519 
2652.862618  	-0.047403 
2654.294277  	-0.047451 
2655.725935  	-0.047239 
2657.157593  	-0.047274 
2658.589251  	-0.047212 
2660.020909  	-0.046882 
2661.452568  	-0.046731 
2662.884226  	-0.046456 
2664.315884  	-0.046332 
2665.747542  	-0.046396 
2667.179200  	-0.046139 
2668.610858  	-0.046027 
2670.042517  	-0.046007 
2671.474175  	-0.045808 
2672.905833  	-0.045759 
2674.337491  	-0.045641 
2675.769149  	-0.045554 
2677.200808  	-0.045558 
2678.632466  	-0.045344 
2680.064124  	-0.045255 
2681.495782  	-0.045036 
2682.927440  	-0.044570 
2684.359099  	-0.044526 
2685.790757  	-0.044536 
2687.222415  	-0.044339 
2688.654073  	-0.044160 
2690.085731  	-0.043829 
2691.517389  	-0.043632 
2692.949048  	-0.043510 
2694.380706  	-0.043201 
2695.812364  	-0.042956 
2697.244022  	-0.042660 
2698.675680  	-0.042525 
2700.107339  	-0.042545 
2701.538997  	-0.042193 
2702.970655  	-0.041992 
2704.402313  	-0.041978 
2705.833971  	-0.041706 
2707.265630  	-0.041633 
2708.697288  	-0.041574 
2710.128946  	-0.041363 
2711.560604  	-0.041216 
2712.992262  	-0.040782 
2714.423920  	-0.040510 
2715.855579  	-0.040591 
2717.287237  	-0.040382 
2718.718895  	-0.040126 
2720.150553  	-0.039900 
2721.582211  	-0.039658 
2723.013870  	-0.039600 
2724.445528  	-0.039272 
2725.877186  	-0.038802 
2727.308844  	-0.038509 
2728.740502  	-0.038228 
2730.172160  	-0.038167 
2731.603819  	-0.037985 
2733.035477  	-0.037554 
2734.467135  	-0.037331 
2735.898793  	-0.037023 
2737.330451  	-0.036835 
2738.762110  	-0.036800 
2740.193768  	-0.036285 
2741.625426  	-0.035980 
2743.057084  	-0.036192 
2744.488742  	-0.036305 
2745.920401  	-0.036285 
2747.352059  	-0.036052 
2748.783717  	-0.036039 
2750.215375  	-0.036290 
2751.647033  	-0.036037 
2753.078691  	-0.035906 
2754.510350  	-0.036003 
2755.942008  	-0.035717 
2757.373666  	-0.035758 
2758.805324  	-0.035840 
2760.236982  	-0.035493 
2761.668641  	-0.035428 
2763.100299  	-0.035313 
2764.531957  	-0.035044 
2765.963615  	-0.035048 
2767.395273  	-0.034981 
2768.826931  	-0.034829 
2770.258590  	-0.034472 
2771.690248  	-0.034020 
2773.121906  	-0.033925 
2774.553564  	-0.033530 
2775.985222  	-0.032838 
2777.416881  	-0.032361 
2778.848539  	-0.031699 
2780.280197  	-0.031088 
2781.711855  	-0.030465 
2783.143513  	-0.029400 
2784.575172  	-0.028468 
2786.006830  	-0.027512 
2787.438488  	-0.026183 
2788.870146  	-0.024872 
2790.301804  	-0.023513 
2791.733462  	-0.022172 
2793.165121  	-0.020911 
2794.596779  	-0.019791 
2796.028437  	-0.019221 
2797.460095  	-0.018895 
2798.891753  	-0.018865 
2800.323412  	-0.019365 
2801.755070  	-0.019746 
2803.186728  	-0.020337 
2804.618386  	-0.021308 
2806.050044  	-0.021989 
2807.481703  	-0.022847 
2808.913361  	-0.023838 
2810.345019  	-0.024541 
2811.776677  	-0.025263 
2813.208335  	-0.025516 
2814.639993  	-0.025438 
2816.071652  	-0.025473 
2817.503310  	-0.024914 
2818.934968  	-0.024015 
2820.366626  	-0.023054 
2821.798284  	-0.021652 
2823.229943  	-0.020186 
2824.661601  	-0.018436 
2826.093259  	-0.016263 
2827.524917  	-0.013968 
2828.956575  	-0.010903 
2830.388233  	-0.007334 
2831.819892  	-0.003974 
2833.251550  	-0.000359 
2834.683208  	0.003650 
2836.114866  	0.008106 
2837.546524  	0.013077 
2838.978183  	0.018053 
2840.409841  	0.023086 
2841.841499  	0.028347 
2843.273157  	0.033726 
2844.704815  	0.039347 
2846.136474  	0.045117 
2847.568132  	0.050846 
2848.999790  	0.055940 
2850.431448  	0.059557 
2851.863106  	0.061925 
2853.294764  	0.063431 
2854.726423  	0.064118 
2856.158081  	0.064527 
2857.589739  	0.064559 
2859.021397  	0.064042 
2860.453055  	0.063544 
2861.884714  	0.062729 
2863.316372  	0.061353 
2864.748030  	0.059879 
2866.179688  	0.057935 
2867.611346  	0.055406 
2869.043005  	0.052709 
2870.474663  	0.049634 
2871.906321  	0.045991 
2873.337979  	0.041899 
2874.769637  	0.037665 
2876.201295  	0.033453 
2877.632954  	0.029086 
2879.064612  	0.024944 
2880.496270  	0.021411 
2881.927928  	0.018382 
2883.359586  	0.015910 
2884.791245  	0.013986 
2886.222903  	0.012584 
2887.654561  	0.011653 
2889.086219  	0.011164 
2890.517877  	0.011266 
2891.949535  	0.011589 
2893.381194  	0.011991 
2894.812852  	0.012750 
2896.244510  	0.013413 
2897.676168  	0.014015 
2899.107826  	0.015078 
2900.539485  	0.016193 
2901.971143  	0.017197 
2903.402801  	0.018435 
2904.834459  	0.019958 
2906.266117  	0.021687 
2907.697776  	0.023327 
2909.129434  	0.024950 
2910.561092  	0.026931 
2911.992750  	0.029135 
2913.424408  	0.031446 
2914.856066  	0.033630 
2916.287725  	0.035129 
2917.719383  	0.035892 
2919.151041  	0.036146 
2920.582699  	0.036006 
2922.014357  	0.035545 
2923.446016  	0.035034 
2924.877674  	0.035201 
2926.309332  	0.036076 
2927.740990  	0.037047 
2929.172648  	0.038224 
2930.604306  	0.039724 
2932.035965  	0.041333 
2933.467623  	0.042950 
2934.899281  	0.044474 
2936.330939  	0.046119 
2937.762597  	0.047607 
2939.194256  	0.048203 
2940.625914  	0.048328 
2942.057572  	0.048384 
2943.489230  	0.047867 
2944.920888  	0.046739 
2946.352547  	0.045079 
2947.784205  	0.043040 
2949.215863  	0.041086 
2950.647521  	0.038876 
2952.079179  	0.036095 
2953.510837  	0.033101 
2954.942496  	0.029859 
2956.374154  	0.026377 
2957.805812  	0.022884 
2959.237470  	0.019262 
2960.669128  	0.015473 
2962.100787  	0.011725 
2963.532445  	0.008082 
2964.964103  	0.004407 
2966.395761  	0.000820 
2967.827419  	-0.002536 
2969.259078  	-0.005739 
2970.690736  	-0.008589 
2972.122394  	-0.011326 
2973.554052  	-0.014347 
2974.985710  	-0.017070 
2976.417368  	-0.019374 
2977.849027  	-0.021594 
2979.280685  	-0.023572 
2980.712343  	-0.025478 
2982.144001  	-0.027099 
2983.575659  	-0.028308 
2985.007318  	-0.029712 
2986.438976  	-0.030949 
2987.870634  	-0.031810 
2989.302292  	-0.032736 
2990.733950  	-0.033489 
2992.165608  	-0.034211 
2993.597267  	-0.034865 
2995.028925  	-0.035188 
2996.460583  	-0.035593 
2997.892241  	-0.035648 
2999.323899  	-0.035491 
3000.755558  	-0.035941 
3002.187216  	-0.036147 
3003.618874  	-0.036099 
3005.050532  	-0.036402 
3006.482190  	-0.036285 
3007.913849  	-0.036042 
3009.345507  	-0.036051 
3010.777165  	-0.035916 
3012.208823  	-0.036108 
3013.640481  	-0.036462 
3015.072139  	-0.036606 
3016.503798  	-0.036702 
3017.935456  	-0.036462 
3019.367114  	-0.036332 
3020.798772  	-0.036336 
3022.230430  	-0.035747 
3023.662089  	-0.035133 
3025.093747  	-0.034608 
3026.525405  	-0.033830 
3027.957063  	-0.033119 
3029.388721  	-0.032155 
3030.820380  	-0.031180 
3032.252038  	-0.030732 
3033.683696  	-0.030417 
3035.115354  	-0.030397 
3036.547012  	-0.030445 
3037.978670  	-0.030017 
3039.410329  	-0.029615 
3040.841987  	-0.029315 
3042.273645  	-0.029268 
3043.705303  	-0.029710 
3045.136961  	-0.029883 
3046.568620  	-0.029787 
3048.000278  	-0.029778 
3049.431936  	-0.029858 
3050.863594  	-0.030406 
3052.295252  	-0.030770 
3053.726910  	-0.030434 
3055.158569  	-0.030206 
3056.590227  	-0.030233 
3058.021885  	-0.030375 
3059.453543  	-0.030616 
3060.885201  	-0.030741 
3062.316860  	-0.030908 
3063.748518  	-0.031001 
3065.180176  	-0.031230 
3066.611834  	-0.032007 
3068.043492  	-0.032599 
3069.475151  	-0.032960 
3070.906809  	-0.033617 
3072.338467  	-0.034120 
3073.770125  	-0.034472 
3075.201783  	-0.034930 
3076.633441  	-0.035403 
3078.065100  	-0.035996 
3079.496758  	-0.036482 
3080.928416  	-0.036813 
3082.360074  	-0.037121 
3083.791732  	-0.037353 
3085.223391  	-0.037788 
3086.655049  	-0.038188 
3088.086707  	-0.038301 
3089.518365  	-0.038381 
3090.950023  	-0.038185 
3092.381682  	-0.038036 
3093.813340  	-0.038235 
3095.244998  	-0.038108 
3096.676656  	-0.037849 
3098.108314  	-0.037520 
3099.539972  	-0.036788 
3100.971631  	-0.036443 
3102.403289  	-0.036381 
3103.834947  	-0.035972 
3105.266605  	-0.035728 
3106.698263  	-0.035423 
3108.129922  	-0.034574 
3109.561580  	-0.033777 
3110.993238  	-0.033413 
3112.424896  	-0.032998 
3113.856554  	-0.032181 
3115.288212  	-0.031568 
3116.719871  	-0.031376 
3118.151529  	-0.031079 
3119.583187  	-0.030883 
3121.014845  	-0.030704 
3122.446503  	-0.030360 
3123.878162  	-0.030413 
3125.309820  	-0.030488 
3126.741478  	-0.030605 
3128.173136  	-0.031404 
3129.604794  	-0.032005 
3131.036453  	-0.032412 
3132.468111  	-0.033430 
3133.899769  	-0.034356 
3135.331427  	-0.034939 
3136.763085  	-0.035436 
3138.194743  	-0.035858 
3139.626402  	-0.036569 
3141.058060  	-0.037193 
3142.489718  	-0.037488 
3143.921376  	-0.037925 
3145.353034  	-0.038454 
3146.784693  	-0.038916 
3148.216351  	-0.039001 
3149.648009  	-0.038847 
3151.079667  	-0.038977 
3152.511325  	-0.038835 
3153.942983  	-0.038591 
3155.374642  	-0.038708 
3156.806300  	-0.038375 
3158.237958  	-0.038072 
3159.669616  	-0.038231 
3161.101274  	-0.037980 
3162.532933  	-0.037814 
3163.964591  	-0.037822 
3165.396249  	-0.037288 
3166.827907  	-0.036768 
3168.259565  	-0.036366 
3169.691224  	-0.035821 
3171.122882  	-0.035281 
3172.554540  	-0.034656 
3173.986198  	-0.034325 
3175.417856  	-0.034163 
3176.849514  	-0.033545 
3178.281173  	-0.032700 
3179.712831  	-0.031625 
3181.144489  	-0.030527 
3182.576147  	-0.029954 
3184.007805  	-0.029473 
3185.439464  	-0.028774 
3186.871122  	-0.027933 
3188.302780  	-0.027072 
3189.734438  	-0.026745 
3191.166096  	-0.026849 
3192.597755  	-0.026978 
3194.029413  	-0.027154 
3195.461071  	-0.027380 
3196.892729  	-0.027893 
3198.324387  	-0.028328 
3199.756045  	-0.028311 
3201.187704  	-0.028635 
3202.619362  	-0.029227 
3204.051020  	-0.029595 
3205.482678  	-0.029900 
3206.914336  	-0.029732 
3208.345995  	-0.029286 
3209.777653  	-0.029199 
3211.209311  	-0.029190 
3212.640969  	-0.029154 
3214.072627  	-0.028891 
3215.504285  	-0.028305 
3216.935944  	-0.027905 
3218.367602  	-0.027360 
3219.799260  	-0.026487 
3221.230918  	-0.025881 
3222.662576  	-0.025635 
3224.094235  	-0.025481 
3225.525893  	-0.024864 
3226.957551  	-0.023874 
3228.389209  	-0.023223 
3229.820867  	-0.022488 
3231.252526  	-0.021584 
3232.684184  	-0.020922 
3234.115842  	-0.020008 
3235.547500  	-0.019080 
3236.979158  	-0.018363 
3238.410816  	-0.017348 
3239.842475  	-0.016514 
3241.274133  	-0.015900 
3242.705791  	-0.014913 
3244.137449  	-0.013868 
3245.569107  	-0.012908 
3247.000766  	-0.012003 
3248.432424  	-0.011294 
3249.864082  	-0.010610 
3251.295740  	-0.009853 
3252.727398  	-0.008891 
3254.159057  	-0.007933 
3255.590715  	-0.007230 
3257.022373  	-0.006183 
3258.454031  	-0.004864 
3259.885689  	-0.003854 
3261.317347  	-0.002981 
3262.749006  	-0.002261 
3264.180664  	-0.001477 
3265.612322  	-0.000331 
3267.043980  	0.000461 
3268.475638  	0.000921 
3269.907297  	0.002013 
3271.338955  	0.003605 
3272.770613  	0.004732 
3274.202271  	0.005337 
3275.633929  	0.006274 
3277.065587  	0.007411 
3278.497246  	0.008240 
3279.928904  	0.009353 
3281.360562  	0.010638 
3282.792220  	0.011564 
3284.223878  	0.012548 
3285.655537  	0.013578 
3287.087195  	0.014644 
3288.518853  	0.015834 
3289.950511  	0.016582 
3291.382169  	0.017277 
3292.813828  	0.018301 
3294.245486  	0.019130 
3295.677144  	0.020135 
3297.108802  	0.021278 
3298.540460  	0.021825 
3299.972118  	0.022201 
3301.403777  	0.022802 
3302.835435  	0.023483 
3304.267093  	0.024101 
3305.698751  	0.024323 
3307.130409  	0.024288 
3308.562068  	0.024272 
3309.993726  	0.024331 
3311.425384  	0.024581 
3312.857042  	0.024809 
3314.288700  	0.024965 
3315.720359  	0.025013 
3317.152017  	0.024701 
3318.583675  	0.024460 
3320.015333  	0.024479 
3321.446991  	0.024286 
3322.878649  	0.023840 
3324.310308  	0.023187 
3325.741966  	0.022523 
3327.173624  	0.022001 
3328.605282  	0.021114 
3330.036940  	0.019938 
3331.468599  	0.019138 
3332.900257  	0.018563 
3334.331915  	0.017562 
3335.763573  	0.016161 
3337.195231  	0.014841 
3338.626889  	0.013280 
3340.058548  	0.011350 
3341.490206  	0.009672 
3342.921864  	0.007940 
3344.353522  	0.006088 
3345.785180  	0.004492 
3347.216839  	0.002437 
3348.648497  	0.000412 
3350.080155  	-0.000738 
3351.511813  	-0.002143 
3352.943471  	-0.004035 
3354.375130  	-0.005873 
3355.806788  	-0.007764 
3357.238446  	-0.009273 
3358.670104  	-0.010649 
3360.101762  	-0.012296 
3361.533420  	-0.013645 
3362.965079  	-0.014804 
3364.396737  	-0.015987 
3365.828395  	-0.017161 
3367.260053  	-0.018399 
3368.691711  	-0.019266 
3370.123370  	-0.020041 
3371.555028  	-0.021052 
3372.986686  	-0.021834 
3374.418344  	-0.022526 
3375.850002  	-0.022997 
3377.281660  	-0.023223 
3378.713319  	-0.023867 
3380.144977  	-0.024448 
3381.576635  	-0.024625 
3383.008293  	-0.024821 
3384.439951  	-0.025118 
3385.871610  	-0.025809 
3387.303268  	-0.026392 
3388.734926  	-0.026508 
3390.166584  	-0.026885 
3391.598242  	-0.027077 
3393.029901  	-0.027047 
3394.461559  	-0.027429 
3395.893217  	-0.027491 
3397.324875  	-0.027596 
3398.756533  	-0.028287 
3400.188191  	-0.028719 
3401.619850  	-0.029108 
3403.051508  	-0.029390 
3404.483166  	-0.029280 
3405.914824  	-0.029687 
3407.346482  	-0.030328 
3408.778141  	-0.030578 
3410.209799  	-0.030774 
3411.641457  	-0.031107 
3413.073115  	-0.031708 
3414.504773  	-0.032035 
3415.936432  	-0.031988 
3417.368090  	-0.032419 
3418.799748  	-0.032898 
3420.231406  	-0.033146 
3421.663064  	-0.033426 
3423.094722  	-0.033319 
3424.526381  	-0.033331 
3425.958039  	-0.033577 
3427.389697  	-0.033575 
3428.821355  	-0.033925 
3430.253013  	-0.034335 
3431.684672  	-0.034361 
3433.116330  	-0.034507 
3434.547988  	-0.034631 
3435.979646  	-0.034847 
3437.411304  	-0.035048 
3438.842962  	-0.034886 
3440.274621  	-0.034981 
3441.706279  	-0.034949 
3443.137937  	-0.034766 
3444.569595  	-0.035381 
3446.001253  	-0.035818 
3447.432912  	-0.035848 
3448.864570  	-0.036327 
3450.296228  	-0.036683 
3451.727886  	-0.037054 
3453.159544  	-0.037396 
3454.591203  	-0.037196 
3456.022861  	-0.037219 
3457.454519  	-0.037367 
3458.886177  	-0.037372 
3460.317835  	-0.037834 
3461.749493  	-0.038198 
3463.181152  	-0.038134 
3464.612810  	-0.038163 
3466.044468  	-0.038478 
3467.476126  	-0.038856 
3468.907784  	-0.038549 
3470.339443  	-0.038161 
3471.771101  	-0.038523 
3473.202759  	-0.038669 
3474.634417  	-0.038734 
3476.066075  	-0.039135 
3477.497734  	-0.038951 
3478.929392  	-0.038615 
3480.361050  	-0.038617 
3481.792708  	-0.038616 
3483.224366  	-0.038834 
3484.656024  	-0.039028 
3486.087683  	-0.039133 
3487.519341  	-0.039320 
3488.950999  	-0.039316 
3490.382657  	-0.039550 
3491.814315  	-0.039860 
3493.245974  	-0.039808 
3494.677632  	-0.039981 
3496.109290  	-0.040114 
3497.540948  	-0.039904 
3498.972606  	-0.039839 
3500.404264  	-0.039684 
3501.835923  	-0.039540 
3503.267581  	-0.039744 
3504.699239  	-0.039927 
3506.130897  	-0.040013 
3507.562555  	-0.040115 
3508.994214  	-0.040325 
3510.425872  	-0.040407 
3511.857530  	-0.040184 
3513.289188  	-0.040323 
3514.720846  	-0.040673 
3516.152505  	-0.040837 
3517.584163  	-0.041165 
3519.015821  	-0.041323 
3520.447479  	-0.041181 
3521.879137  	-0.040954 
3523.310795  	-0.040730 
3524.742454  	-0.041139 
3526.174112  	-0.041333 
3527.605770  	-0.040962 
3529.037428  	-0.041425 
3530.469086  	-0.041935 
3531.900745  	-0.042050 
3533.332403  	-0.042461 
3534.764061  	-0.042267 
3536.195719  	-0.042117 
3537.627377  	-0.042660 
3539.059035  	-0.042595 
3540.490694  	-0.042723 
3541.922352  	-0.043114 
3543.354010  	-0.042645 
3544.785668  	-0.042516 
3546.217326  	-0.043129 
3547.648985  	-0.043694 
3549.080643  	-0.044133 
3550.512301  	-0.043957 
3551.943959  	-0.043773 
3553.375617  	-0.044239 
3554.807276  	-0.044753 
3556.238934  	-0.045148 
3557.670592  	-0.045035 
3559.102250  	-0.044842 
3560.533908  	-0.045245 
3561.965566  	-0.045328 
3563.397225  	-0.045250 
3564.828883  	-0.044909 
3566.260541  	-0.043706 
3567.692199  	-0.044217 
3569.123857  	-0.046114 
3570.555516  	-0.046284 
3571.987174  	-0.046298 
3573.418832  	-0.046492 
3574.850490  	-0.046386 
3576.282148  	-0.046508 
3577.713807  	-0.046791 
3579.145465  	-0.047393 
3580.577123  	-0.047828 
3582.008781  	-0.047480 
3583.440439  	-0.047359 
3584.872097  	-0.047202 
3586.303756  	-0.046627 
3587.735414  	-0.047074 
3589.167072  	-0.048141 
3590.598730  	-0.048252 
3592.030388  	-0.047944 
3593.462047  	-0.047587 
3594.893705  	-0.047700 
3596.325363  	-0.048126 
3597.757021  	-0.048202 
3599.188679  	-0.047996 
3600.620337  	-0.048091 
3602.051996  	-0.048944 
3603.483654  	-0.049477 
3604.915312  	-0.049498 
3606.346970  	-0.049618 
3607.778628  	-0.049099 
3609.210287  	-0.049172 
3610.641945  	-0.050450 
3612.073603  	-0.049985 
3613.505261  	-0.049220 
3614.936919  	-0.050128 
3616.368578  	-0.049818 
3617.800236  	-0.048625 
3619.231894  	-0.049076 
3620.663552  	-0.050943 
3622.095210  	-0.051602 
3623.526868  	-0.050811 
3624.958527  	-0.050430 
3626.390185  	-0.050428 
3627.821843  	-0.048920 
3629.253501  	-0.048307 
3630.685159  	-0.051044 
3632.116818  	-0.051058 
3633.548476  	-0.050538 
3634.980134  	-0.051115 
3636.411792  	-0.051589 
3637.843450  	-0.052045 
3639.275109  	-0.052575 
3640.706767  	-0.052560 
3642.138425  	-0.052369 
3643.570083  	-0.052487 
3645.001741  	-0.052500 
3646.433399  	-0.051611 
3647.865058  	-0.050501 
3649.296716  	-0.050375 
3650.728374  	-0.050928 
3652.160032  	-0.053248 
3653.591690  	-0.054024 
3655.023349  	-0.053035 
3656.455007  	-0.053474 
3657.886665  	-0.054687 
3659.318323  	-0.054149 
3660.749981  	-0.054324 
3662.181639  	-0.054979 
3663.613298  	-0.054979 
3665.044956  	-0.055087 
3666.476614  	-0.054870 
3667.908272  	-0.054226 
3669.339930  	-0.053587 
3670.771589  	-0.053731 
3672.203247  	-0.054607 
3673.634905  	-0.053566 
3675.066563  	-0.051975 
3676.498221  	-0.054638 
3677.929880  	-0.055802 
3679.361538  	-0.055149 
3680.793196  	-0.055511 
3682.224854  	-0.055537 
3683.656512  	-0.055556 
3685.088170  	-0.055707 
3686.519829  	-0.054778 
3687.951487  	-0.054195 
3689.383145  	-0.054868 
3690.814803  	-0.055189 
3692.246461  	-0.055937 
3693.678120  	-0.056410 
3695.109778  	-0.055800 
3696.541436  	-0.055421 
3697.973094  	-0.055580 
3699.404752  	-0.055270 
3700.836411  	-0.054791 
3702.268069  	-0.055455 
3703.699727  	-0.056198 
3705.131385  	-0.055758 
3706.563043  	-0.055392 
3707.994701  	-0.055189 
3709.426360  	-0.054689 
3710.858018  	-0.054700 
3712.289676  	-0.055230 
3713.721334  	-0.056392 
3715.152992  	-0.057372 
3716.584651  	-0.056731 
3718.016309  	-0.055745 
3719.447967  	-0.055649 
3720.879625  	-0.055189 
3722.311283  	-0.054778 
3723.742941  	-0.055224 
3725.174600  	-0.055051 
3726.606258  	-0.054694 
3728.037916  	-0.055354 
3729.469574  	-0.055725 
3730.901232  	-0.055390 
3732.332891  	-0.055214 
3733.764549  	-0.054592 
3735.196207  	-0.053151 
3736.627865  	-0.054576 
3738.059523  	-0.056800 
3739.491182  	-0.056463 
3740.922840  	-0.056623 
3742.354498  	-0.056169 
3743.786156  	-0.053762 
3745.217814  	-0.055185 
3746.649472  	-0.057338 
3748.081131  	-0.055240 
3749.512789  	-0.054457 
3750.944447  	-0.055345 
3752.376105  	-0.055404 
3753.807763  	-0.057196 
3755.239422  	-0.057431 
3756.671080  	-0.056445 
3758.102738  	-0.056490 
3759.534396  	-0.056527 
3760.966054  	-0.057070 
3762.397712  	-0.057829 
3763.829371  	-0.056929 
3765.261029  	-0.056374 
3766.692687  	-0.057133 
3768.124345  	-0.056812 
3769.556003  	-0.056306 
3770.987662  	-0.057002 
3772.419320  	-0.057596 
3773.850978  	-0.057407 
3775.282636  	-0.057108 
3776.714294  	-0.057295 
3778.145953  	-0.057270 
3779.577611  	-0.056988 
3781.009269  	-0.057297 
3782.440927  	-0.057008 
3783.872585  	-0.056274 
3785.304243  	-0.056474 
3786.735902  	-0.057046 
3788.167560  	-0.057100 
3789.599218  	-0.056761 
3791.030876  	-0.056529 
3792.462534  	-0.057105 
3793.894193  	-0.057472 
3795.325851  	-0.056787 
3796.757509  	-0.056189 
3798.189167  	-0.056106 
3799.620825  	-0.055328 
3801.052484  	-0.054235 
3802.484142  	-0.055612 
3803.915800  	-0.057139 
3805.347458  	-0.056058 
3806.779116  	-0.055386 
3808.210774  	-0.057212 
3809.642433  	-0.057302 
3811.074091  	-0.056605 
3812.505749  	-0.056998 
3813.937407  	-0.056607 
3815.369065  	-0.055449 
3816.800724  	-0.056020 
3818.232382  	-0.056182 
3819.664040  	-0.054651 
3821.095698  	-0.054091 
3822.527356  	-0.056336 
3823.959014  	-0.056826 
3825.390673  	-0.056308 
3826.822331  	-0.056613 
3828.253989  	-0.057036 
3829.685647  	-0.056573 
3831.117305  	-0.056092 
3832.548964  	-0.056142 
3833.980622  	-0.056319 
3835.412280  	-0.056051 
3836.843938  	-0.055286 
3838.275596  	-0.054741 
3839.707255  	-0.054936 
3841.138913  	-0.055352 
3842.570571  	-0.055634 
3844.002229  	-0.056162 
3845.433887  	-0.057007 
3846.865545  	-0.056946 
3848.297204  	-0.056297 
3849.728862  	-0.056318 
3851.160520  	-0.055604 
3852.592178  	-0.052952 
3854.023836  	-0.053001 
3855.455495  	-0.056438 
3856.887153  	-0.056733 
3858.318811  	-0.056811 
3859.750469  	-0.056694 
3861.182127  	-0.056243 
3862.613786  	-0.056039 
3864.045444  	-0.055258 
3865.477102  	-0.055466 
3866.908760  	-0.056935 
3868.340418  	-0.056020 
3869.772076  	-0.054670 
3871.203735  	-0.056565 
3872.635393  	-0.056688 
3874.067051  	-0.055568 
3875.498709  	-0.056398 
3876.930367  	-0.056833 
3878.362026  	-0.055880 
3879.793684  	-0.055354 
3881.225342  	-0.056086 
3882.657000  	-0.056524 
3884.088658  	-0.055433 
3885.520316  	-0.054103 
3886.951975  	-0.055527 
3888.383633  	-0.056737 
3889.815291  	-0.055923 
3891.246949  	-0.055529 
3892.678607  	-0.056553 
3894.110266  	-0.056828 
3895.541924  	-0.056563 
3896.973582  	-0.056121 
3898.405240  	-0.055399 
3899.836898  	-0.055174 
3901.268557  	-0.055271 
3902.700215  	-0.054688 
3904.131873  	-0.054580 
3905.563531  	-0.055835 
3906.995189  	-0.056773 
3908.426847  	-0.057027 
3909.858506  	-0.057103 
3911.290164  	-0.057074 
3912.721822  	-0.057224 
3914.153480  	-0.057222 
3915.585138  	-0.056472 
3917.016797  	-0.055783 
3918.448455  	-0.055842 
3919.880113  	-0.055753 
3921.311771  	-0.055686 
3922.743429  	-0.055739 
3924.175088  	-0.055627 
3925.606746  	-0.055999 
3927.038404  	-0.056239 
3928.470062  	-0.055903 
3929.901720  	-0.055817 
3931.333378  	-0.055476 
3932.765037  	-0.055173 
3934.196695  	-0.056050 
3935.628353  	-0.056278 
3937.060011  	-0.055646 
3938.491669  	-0.055769 
3939.923328  	-0.055944 
3941.354986  	-0.055441 
3942.786644  	-0.055246 
3944.218302  	-0.055682 
3945.649960  	-0.056038 
3947.081618  	-0.055975 
3948.513277  	-0.055952 
3949.944935  	-0.056268 
3951.376593  	-0.056240 
3952.808251  	-0.055967 
3954.239909  	-0.055799 
3955.671568  	-0.055621 
3957.103226  	-0.055845 
3958.534884  	-0.056208 
3959.966542  	-0.056112 
3961.398200  	-0.056047 
3962.829859  	-0.056155 
3964.261517  	-0.056176 
3965.693175  	-0.056080 
3967.124833  	-0.055841 
3968.556491  	-0.055789 
3969.988149  	-0.055776 
3971.419808  	-0.055586 
3972.851466  	-0.055700 
3974.283124  	-0.055773 
3975.714782  	-0.055543 
3977.146440  	-0.055522 
3978.578099  	-0.055595 
3980.009757  	-0.055836 
3981.441415  	-0.056076 
3982.873073  	-0.055639 
3984.304731  	-0.055316 
3985.736389  	-0.055684 
3987.168048  	-0.055861 
3988.599706  	-0.055625 
3990.031364  	-0.055414 
3991.463022  	-0.055452 
3992.894680  	-0.055603 
3994.326339  	-0.055634 
3995.757997  	-0.055751 
3997.189655  	-0.055807 
3998.621313  	-0.055615 
4000.052971  	-0.055624 